1551476083068836,-4,1,-3,-3,-5,1,5,3,-1,-1,5,1,0,0,-2,-2,0,-3,8,-16,-4,-1,-1,-2,-4,-1,11,-4,0,-1,0,-1,-1,0,9,1,4,-3,-3,-2,-3,2,8,11,2,-1,1,-2,-1,0,-1,-1,-1,1,2,1,0,-2,-3,-11,-6,-2,-1,-2
1551476083099091,3,-3,-4,-3,2,0,-2,-2,-1,-3,-21,-15,-8,0,2,5,-1,-1,-21,-16,-6,1,3,1,1,2,-9,-8,-1,-2,-2,-1,-3,-3,-28,-21,-9,4,5,7,-1,0,2,7,0,-3,-4,-2,-4,1,11,17,1,-4,-3,-5,-2,-4,-3,13,0,-3,-1,1
1551476083136792,-1,1,12,25,7,-3,-8,-7,1,-2,-4,14,4,3,5,1,-1,1,-6,12,-6,-2,1,0,0,-1,-7,26,7,6,2,1,2,0,10,23,6,0,-2,-7,1,-4,-2,0,-10,-5,0,-2,-2,-6,-19,3,-6,4,10,13,0,2,6,2,-2,-1,3,1
1551476083173986,-4,-3,4,-13,-6,-4,-1,-1,-3,-1,9,-6,-2,1,-3,1,-1,0,14,4,6,-1,-5,-6,-1,-1,1,-1,0,-1,-4,-3,-2,-1,-10,-4,0,0,-2,-3,-1,-1,9,-1,3,-4,-7,-5,0,0,12,-1,0,0,-2,-3,-1,0,20,-6,0,-3,-2,-3
1551476083211187,1,0,27,-1,-1,-4,-7,-2,0,-1,23,2,1,-1,-6,-4,3,2,35,0,2,1,8,2,-2,-2,23,-3,-3,5,1,1,-2,1,18,5,0,2,8,1,-3,0,2,-16,-7,-17,-46,-22,-3,-6,-12,-11,-6,-30,-49,6,0,-3,-12,-9,0,33,62,4
1551476087794231,-2,-1,-1,-20,-12,7,28,13,-11,-7,2,3,2,-2,0,0,0,4,-17,-4,6,-10,-15,16,2,-3,5,51,6,-26,-82,-27,44,-6,-13,-11,11,34,91,14,16,9,-22,-13,-7,28,35,52,-10,-7,43,-22,-6,-38,-61,-13,-6,-18,-49,-5,15,-8,-7,-16
1551476087869123,4,5,28,4,-13,-1,-3,17,1,-17,-44,-26,-7,-6,4,-10,-14,2,24,62,15,-14,-18,-23,0,6,21,47,2,-12,0,2,-9,-6,-31,1,-8,-1,-3,-13,-10,-15,-26,-41,0,5,-6,2,-8,3,-20,-100,-20,-16,-23,-3,5,11,29,39,3,-24,-20,-19
1551476087913764,1,-2,-27,-55,0,-8,-7,5,2,5,20,17,-14,-10,-2,-8,38,12,42,43,0,1,11,10,11,-20,11,52,-3,-11,-11,-13,-18,0,-28,54,20,19,1,-8,-3,0,1,31,5,-4,-15,-17,14,11,39,79,-11,-10,11,61,10,-2,-31,-56,4,19,15,16
1551476087973778,-12,-11,-39,77,12,16,0,23,25,-2,47,-19,-7,-9,-9,-30,7,40,-58,-45,-4,-4,-25,-40,-73,-88,12,56,2,8,-42,-53,-12,18,11,-24,-10,-11,-24,88,65,77,37,58,17,24,77,67,-49,-32,-17,8,-20,-58,46,53,-87,82,31,43,18,56,-68,-122
1551476088033797,-1,-101,-33,-43,-16,-55,-68,51,-45,93,47,59,-1,38,70,115,45,-56,27,1,2,10,51,-15,69,-13,-4,-42,-20,-24,0,-68,-21,11,-18,-39,-4,-23,-72,-75,-11,-20,-11,5,8,19,29,24,-13,29,-15,-31,3,9,1,49,-2,-20,-26,9,0,-8,-3,-20
1551476093223937,-11,0,28,22,-7,-39,118,127,-10,3,23,90,-5,14,91,127,-2,-4,14,91,21,-10,127,83,-8,0,-2,60,-15,-55,86,50,-8,0,-20,-10,-24,63,-67,-33,7,0,4,31,15,6,67,-56,18,-17,-28,-114,-8,61,-56,-128,-68,-21,-2,-52,27,127,61,2
1551476093261632,11,-7,-57,-14,14,-72,-80,24,18,58,9,-15,-21,-33,-128,-27,-16,12,55,16,-1,-33,-128,-53,-33,11,54,78,-25,-60,-128,-29,9,3,19,-20,3,-30,-84,-18,27,-17,22,42,-1,-5,-105,-13,6,-1,0,-4,6,7,-65,-15,20,3,-12,-36,-8,18,-22,-6
1551476093313859,-3,-16,-3,7,-12,11,39,10,1,3,12,81,24,3,-43,3,-8,2,-8,4,29,-8,35,-17,-7,-11,-6,-30,-26,-51,-12,-22,6,-1,15,43,42,82,6,-29,1,-2,29,18,1,28,41,-22,-6,9,4,-1,-11,-24,-7,6,5,-7,-5,-4,0,-29,-37,-8
1551476093404082,7,17,21,42,16,33,105,26,16,-10,6,-1,11,74,90,4,24,57,-4,-15,-21,-65,-70,10,17,-79,-6,0,-8,-31,12,55,8,6,-6,-13,3,10,33,20,13,2,-13,0,4,13,15,3,-33,-63,-13,-12,-8,6,-24,-28,2,43,11,0,-4,-8,-30,-20
1551476093441186,-8,3,3,7,-4,14,60,10,-5,16,-7,-18,-7,-15,-8,-14,-7,-15,4,6,-5,-11,-5,-6,-58,2,-3,-3,-4,-22,-32,-14,-8,8,19,10,-1,36,-33,-13,39,97,-3,15,-5,-78,-49,-1,2,-84,3,26,5,-40,65,46,61,29,14,8,13,63,37,19
1551476098863948,-36,-11,-58,-64,-58,-27,1,-17,-5,-3,37,95,13,14,14,0,-1,-5,15,-101,-4,-9,7,9,21,-27,-72,-122,4,-16,11,-18,-6,1,-7,17,-11,-36,-7,2,15,-11,21,-84,-15,30,-10,-24,0,2,12,-33,-6,2,3,26,-9,9,90,112,12,39,16,4
1551476098931406,12,-2,-13,42,25,13,-32,-43,-10,-50,-88,-128,4,-3,-5,4,-10,-14,9,-27,-18,-31,-31,16,-9,-6,27,70,5,11,-15,-12,-5,30,-5,2,-15,-2,1,-32,1,12,-13,70,40,24,18,15,-4,34,81,100,-29,-44,-47,-1,14,-15,-48,-87,48,44,45,-4
1551476098991420,0,-1,-6,-12,-57,29,98,-21,-3,3,46,122,53,-30,-12,13,14,5,32,62,92,89,127,64,-7,6,-15,-10,75,68,-21,-43,2,-6,3,68,42,-27,-8,13,2,2,46,-40,-19,29,18,-1,3,-9,-66,-82,-7,-29,-41,-41,-6,11,-12,-8,-10,3,14,-10
1551476099036556,-5,-9,-11,58,2,-3,-19,-66,2,13,12,-3,6,15,33,22,5,35,23,108,34,-11,-11,4,-6,-25,-69,-47,-26,2,-4,-21,-3,-7,18,34,-9,-27,-45,-1,14,-6,10,-1,1,4,47,-12,-9,9,51,54,33,35,22,38,2,24,44,-8,-21,-49,-4,-6
1551476099081356,3,12,24,13,-11,7,-6,-13,1,-7,14,-18,-5,-27,-4,18,1,-16,-21,-14,8,17,9,25,1,24,20,33,-5,5,14,1,-2,9,-13,-84,-2,-7,-13,-10,-7,-12,-16,63,22,17,13,-14,11,-63,-31,55,9,-2,1,22,-14,53,-14,23,-11,-5,2,-27
1551476101721406,7,68,26,-36,3,-12,10,11,-89,-69,-95,-123,-25,2,-39,-128,88,53,-36,31,-15,11,41,2,30,101,41,36,16,-5,-12,4,8,-17,43,-8,-6,51,-22,15,-111,54,25,-75,4,60,-24,12,-49,86,-22,-7,-8,26,124,56,-128,97,-42,41,5,49,102,36
1551476101773981,29,-6,14,8,-20,-62,34,-125,67,101,67,-18,-49,-106,108,-71,56,18,-17,-128,-60,-122,-84,118,72,-39,-33,40,-6,-61,-80,119,-8,-13,-2,-27,-24,-71,-106,-60,65,-43,-39,-65,-6,-3,-114,68,-49,-9,-29,-83,-5,49,-125,56,21,21,39,20,22,85,-128,17
1551476101834002,9,-7,-21,-50,7,68,-109,1,-18,-57,-43,37,25,24,-67,-102,18,17,1,3,9,30,-113,-93,-45,27,15,-12,-10,21,-128,-6,12,-30,12,118,25,19,98,-6,-33,-26,-45,-112,-33,12,114,-78,-37,-44,-63,-12,-12,15,115,-28,-2,-11,36,115,21,-5,119,-1
1551476101886076,-8,17,41,-26,-2,-10,116,25,11,-16,-20,-59,2,-14,61,-22,-13,14,24,-63,-1,-14,30,-7,-28,-4,4,15,7,-19,-10,-27,-14,19,-9,24,-12,-19,-1,80,67,39,24,-35,-4,-11,-8,-4,10,-8,-27,-10,-1,-13,-8,-68,23,16,-1,13,2,-13,-3,108
1551476101938652,-3,-64,-18,-10,-7,-15,-46,-41,0,62,12,11,-6,-7,-12,51,6,8,-6,54,-4,-2,13,24,-33,-14,-16,61,-4,5,3,-50,33,-22,-15,-92,-5,16,6,-8,-21,-22,-12,-1,8,19,-42,-1,-10,4,69,118,12,17,5,-8,1,-26,28,1,11,8,27,-8
1551476107721514,-5,-5,3,13,-6,-5,-8,56,-3,-6,-30,-33,-37,16,13,19,6,17,99,127,20,9,-3,69,4,-12,17,8,-8,-54,-50,-41,-10,-22,-20,-5,33,8,-11,-32,-5,20,25,61,-15,-1,-4,-4,-5,3,-6,-21,12,-23,-28,-38,1,10,27,-14,-7,47,42,16
1551476107766153,-1,-6,-52,12,2,-4,-6,0,1,7,21,-31,-12,5,5,36,4,-3,24,7,30,-1,-25,-42,7,6,-22,1,-48,-43,-11,1,-4,-9,-13,-102,-11,-9,-10,4,-2,-21,-77,-60,-4,-4,-7,-10,-20,-8,-67,-83,18,12,22,40,7,-6,-31,27,-19,-3,-5,7
1551476107819227,4,25,40,64,11,3,9,-8,-6,-39,-68,-27,-5,-12,-5,-35,-1,7,-25,0,-41,-11,-12,6,3,-2,-21,-100,-22,-23,-15,-18,-2,-2,0,-14,16,4,-15,-28,-9,11,-3,-26,11,21,27,39,7,10,38,43,18,0,-1,-43,-9,-13,-22,-13,33,22,4,14
1551476107864006,0,7,29,-70,-25,1,5,5,-5,15,38,-7,10,11,4,16,-8,-10,9,33,-8,-3,7,-6,9,15,49,93,43,26,9,2,2,-12,4,-15,32,2,19,29,-8,4,26,47,-24,-8,8,5,-5,-1,-27,-57,10,18,10,6,-2,-11,-62,20,-48,-48,-69,-69
1551476107909013,13,7,15,63,17,22,21,7,-9,-2,34,96,83,39,53,51,-6,5,27,-44,-49,-14,-22,-28,0,-3,-59,-126,-47,-18,-16,-25,1,-23,-42,20,20,-7,-14,-15,-11,-12,8,28,20,17,19,18,2,11,27,40,13,-3,21,40,10,10,85,-38,-50,-11,5,50
1551476121378868,43,-13,-2,-6,5,77,93,-6,-2,-29,3,16,16,-28,-86,-14,9,7,-24,-13,1,90,100,8,4,23,8,26,20,21,19,-4,-9,-5,-1,-17,-15,-17,-56,17,11,12,0,14,5,-6,15,-11,-7,-15,6,6,8,-14,-10,-19,5,0,-15,6,-4,5,12,4
1551476121438974,10,20,20,2,-4,-19,11,57,0,-34,-57,-13,-7,-17,-30,-7,-7,-14,2,-5,7,-35,-28,5,-10,-3,21,9,0,20,-3,-17,-3,-42,-45,20,7,23,15,-1,1,-3,17,-4,-1,9,-15,-14,-4,-6,-10,-15,-16,-38,-36,-27,1,17,43,-15,12,-39,-10,8
1551476121491459,7,-1,19,18,9,22,-10,3,2,14,-1,20,-8,23,41,0,-6,-8,-4,-9,-6,-70,-45,24,0,-5,16,37,4,44,50,-11,3,4,-5,-6,-9,-11,-3,-53,2,1,8,-4,1,14,8,46,11,-8,-14,-15,-20,-21,-38,-59,-12,7,1,-28,-6,2,29,27
1551476121529176,6,-32,34,20,10,6,28,47,9,14,-29,-22,-13,0,3,-19,-8,1,0,2,4,-11,-10,-6,-6,6,14,18,23,3,-4,-7,1,-1,-1,-19,-9,9,0,1,0,-4,-2,-1,22,38,13,-15,-7,3,-5,7,-2,-19,-2,13,2,0,-6,-35,-14,4,0,-5
1551476121581236,4,7,-11,4,-3,-13,-5,5,1,-5,0,-8,14,8,4,-11,-6,3,7,17,-34,-6,3,15,0,-3,1,25,15,-10,-14,-6,-1,-2,1,51,-11,-21,-9,-7,-6,-1,-1,-3,22,16,17,5,-3,-2,-5,-13,-10,-15,-16,-4,5,2,-2,-27,-4,-10,-55,-46
1551476127491570,-9,5,-9,11,14,-22,66,-32,-15,-18,-5,5,7,-67,-14,-23,12,16,2,-17,5,-74,-95,-15,-28,28,4,30,8,-87,-86,-27,-37,-3,-29,69,-30,8,-82,-19,-17,0,4,13,-14,-48,-58,-34,-68,-34,-8,-32,3,13,-60,-38,21,75,-81,-90,-23,8,59,44
1551476127536209,19,2,8,45,38,35,13,8,7,-19,26,-11,-27,-5,39,-21,0,0,-13,-35,-1,17,-45,-7,0,-6,-5,27,36,6,-68,-7,5,-3,0,-37,-25,-73,-59,-65,-5,-26,8,4,-3,70,59,-47,33,19,10,-21,-3,36,66,72,7,-80,-8,17,0,94,22,-15
1551476127581345,-10,-13,11,22,6,-33,60,6,-19,-9,3,-8,-17,-60,-107,-34,20,17,6,21,11,65,59,33,-8,-41,3,5,5,-40,-48,-5,-7,-18,-6,-32,-6,37,-70,-27,-8,-3,-10,-8,-24,-118,-97,-9,20,1,8,24,17,67,95,25,-3,19,25,18,7,37,79,24
1551476127633921,-11,4,-2,15,23,40,24,-7,-7,23,-7,-29,-6,-36,-21,-15,11,-8,8,48,-19,-20,-102,-74,5,62,21,-44,-12,-81,91,114,-8,-19,-1,12,12,62,62,22,13,-17,19,32,-1,-26,3,-23,0,4,13,33,3,-46,-73,-36,2,4,-11,-90,-20,23,70,4
1551476127680050,10,21,5,8,6,23,-5,26,4,-22,-7,19,16,49,50,2,-8,19,-14,-74,-28,62,15,-8,2,-10,-15,22,-6,-99,-93,-47,-9,12,-10,9,-26,-25,10,15,-10,-24,-15,-34,18,78,-49,-21,1,3,12,10,-4,-60,80,19,12,17,19,9,17,20,-45,12
1551476137909054,-2,1,-17,-1,-1,-37,-46,-15,-4,16,12,-3,-7,-45,-10,6,-5,-10,43,106,12,17,5,52,2,-32,-14,-64,-12,2,-48,-29,-29,-2,0,38,-30,-86,-50,-22,13,3,-24,-44,0,94,61,5,8,1,0,24,-2,-13,21,11,-15,-6,10,-32,-5,-28,-40,4
1551476137961235,6,16,-1,-22,-12,26,13,-7,-4,-2,21,-24,8,59,36,-2,12,9,-23,-45,-21,26,16,11,-2,-23,-9,90,9,-102,-67,-30,-5,-9,-20,-82,-6,-22,19,-6,-8,5,22,100,10,23,18,15,12,19,11,-12,-40,-44,-51,13,6,7,-9,26,15,8,5,-35
1551476138006284,3,-1,-8,-22,26,57,30,38,-13,-4,6,5,-1,30,47,24,7,17,-3,33,16,-13,-9,-6,-2,-5,-2,-7,-23,-34,-26,4,-1,-3,-2,26,55,25,4,-17,2,8,3,-11,-38,-56,-38,-9,-6,-3,27,80,24,25,20,-8,-4,-4,-29,-71,-3,6,-19,-4
1551476138059005,-6,1,36,-5,-21,1,13,-7,0,13,75,107,-14,3,20,31,0,-4,-3,2,13,-5,-8,-7,11,-8,-5,-44,13,12,-38,-3,-6,2,2,23,20,-20,2,-14,-5,3,11,-20,5,31,9,8,3,7,-32,30,-64,-8,2,-19,-8,0,21,92,27,13,9,24
1551476138104090,1,0,-25,-71,-2,-2,-11,-16,-6,-5,-11,-46,-33,-30,-8,-6,5,2,7,-43,0,2,24,26,-2,-7,-14,-83,11,11,11,-2,-11,-20,-69,-128,-76,-34,-27,-28,12,4,14,21,20,-22,-7,-33,1,6,5,59,14,15,4,10,-1,-3,43,-99,-94,-34,-23,-19
1551476151056026,16,5,-21,9,-12,-4,2,1,8,27,34,17,-1,5,8,-6,-7,-28,-2,-8,-1,2,-1,-11,7,4,20,22,-2,-2,-1,-2,-5,26,-9,-11,1,1,1,3,-3,-12,-15,-54,-5,0,-1,-5,9,13,14,-11,3,0,2,-1,-5,-8,-14,28,-2,-4,-5,0
1551476151101161,-4,-5,3,8,0,-1,-1,5,6,12,-5,25,7,0,-3,-13,6,-18,-3,-2,0,0,1,1,-30,7,-13,1,-3,1,0,-5,2,-10,4,-2,-4,-1,1,-3,-4,-13,-27,5,-1,-1,4,-3,-1,-4,-55,-33,0,-2,-3,-12,-5,-1,-4,1,-1,0,-2,-2
1551476151168617,8,-2,19,3,1,-4,1,1,3,-7,13,9,-3,-4,-1,-3,2,5,1,-10,-3,-4,0,0,2,-6,-15,-3,-5,-2,-2,1,2,13,9,70,4,-2,-2,1,6,19,-17,-54,-3,0,-2,1,-7,6,28,6,0,-1,0,-4,4,3,4,-28,-3,-1,2,-1
1551476151206312,3,-12,3,-2,-1,-2,-6,1,-2,-1,12,-4,-1,-2,-3,-3,-3,10,0,-6,1,-1,2,-2,0,-7,-4,-10,0,2,-2,1,-1,-4,-4,3,1,-2,-4,0,2,-12,-4,6,0,2,-3,-1,-1,0,3,49,2,1,0,-1,-1,5,5,-12,-2,-7,-6,-2
1551476151266329,-3,-5,1,-12,-2,-3,-4,-2,2,-6,-2,-3,-1,-3,3,1,2,19,7,8,0,8,8,0,-3,-37,4,8,-3,9,10,-1,0,0,3,-22,2,4,4,-4,4,17,-2,18,3,10,6,3,2,-14,-5,-13,-4,-18,-21,-3,1,17,17,12,4,3,2,-2
1551476154611352,-10,8,-5,127,110,44,31,-4,41,15,10,-73,-51,-74,-37,1,-6,-25,8,30,-17,12,7,-29,7,-16,15,21,-18,-34,7,-7,18,-30,-44,-59,34,9,-8,-38,8,43,-7,-36,-40,-14,9,-35,-2,-2,39,33,-19,17,19,29,8,-26,-20,-4,2,9,-27,-45
1551476154663927,-5,17,14,5,-1,-2,12,-26,0,10,-18,-6,-47,-22,-15,-7,-17,8,15,127,10,34,13,31,7,73,-5,40,100,59,27,-4,-6,-54,-67,-69,19,-85,-57,1,-4,17,-23,-38,-45,25,-13,-12,-12,0,-11,48,-13,1,85,50,-21,28,21,81,-7,21,10,39
1551476154708567,8,21,-48,-28,53,21,-17,13,-28,-59,-9,112,51,-5,-5,-37,35,-12,-28,-128,-50,-59,-53,-57,-10,4,-23,100,-31,2,26,25,-5,13,26,73,2,11,11,-37,-21,-36,-37,6,-23,1,-4,6,-6,43,52,24,15,29,-1,-13,13,12,93,79,41,8,3,14
1551476154753703,12,5,54,-92,-86,-34,11,2,-7,1,47,9,16,23,-4,1,-10,-1,1,-49,-10,1,-15,33,5,-7,9,19,-35,-44,-25,-10,4,40,52,105,48,35,39,28,11,-1,-12,-91,19,-13,2,-8,-1,4,63,48,-26,-1,-25,-27,3,6,-35,-25,-9,-4,8,-13
1551476154813720,-15,-21,14,-14,-2,19,20,7,4,5,4,62,21,-9,-9,4,-3,-5,-29,-32,-12,-4,-8,8,-4,-8,14,-61,-25,-11,-10,-7,1,-2,18,-23,18,10,25,23,2,1,-6,-77,1,-5,0,2,-6,-2,-19,20,12,10,-14,-4,-7,-4,10,9,-28,-22,-15,20
1551476166018852,34,24,28,90,81,-9,-17,-7,5,9,3,0,-22,7,-10,-109,19,-35,-22,20,-12,0,-21,44,12,-27,-53,9,-57,-73,-29,107,-2,58,-32,27,-10,-53,-73,4,-18,26,-19,40,20,-19,-23,1,-23,-25,-7,90,34,23,-64,-128,-20,-106,-39,-43,-53,-46,75,-31
1551476166071426,28,-41,40,-28,27,-16,99,104,-42,-54,-31,53,40,117,60,-13,-7,-7,-12,77,-15,57,-53,-52,22,7,0,-22,-1,-75,-95,-6,-3,14,-20,-27,89,30,37,-20,-13,-4,33,34,-1,-99,-119,-6,6,-24,-26,0,7,84,127,26,0,-4,17,-28,-25,47,33,45
1551476166123506,-1,8,25,46,5,-8,101,27,28,102,5,-1,-13,-78,-59,9,-12,16,-33,-50,-8,7,-12,19,15,-3,-5,-29,26,42,0,8,-9,1,0,4,-46,-114,-109,-70,-60,-41,-8,-17,38,-13,-105,-128,-17,-55,-48,8,-23,-64,-39,-67,6,-20,-18,-21,-31,-2,68,1
1551476166176087,5,25,20,42,-13,-31,-2,1,-19,-24,7,84,38,28,7,-3,9,8,-2,-15,-14,-14,-34,-8,-3,-19,18,-51,-11,36,27,7,-32,-31,-24,-22,-26,-11,-46,-31,0,-2,8,-27,-12,53,28,10,32,25,-16,-19,-8,-114,-50,27,10,22,30,-20,1,104,-17,-20
1551476166221218,0,59,15,52,-10,-41,18,1,15,-30,-49,13,6,115,46,36,-20,-60,-42,15,4,-4,37,-35,31,-71,-8,39,7,4,-19,17,-21,-45,-13,-9,-9,-16,-37,10,14,30,51,-30,3,-23,19,34,16,3,11,-52,-1,12,-19,-20,5,9,7,-58,1,-27,-10,-6
1551476168613922,4,-9,-31,50,-17,9,11,5,-1,-1,7,87,23,18,13,23,8,4,20,43,-4,-5,14,2,-12,-12,20,72,-2,11,13,-83,-19,11,23,-27,-8,-20,-7,-41,8,35,23,-15,-14,-11,19,6,-1,6,5,-20,7,6,13,-49,-4,22,20,4,-11,-10,10,13
1551476168651161,30,-51,-9,-6,18,14,-1,-53,21,44,-10,-70,0,-4,-9,-41,-17,-14,-29,-42,-9,1,3,54,-15,-14,44,86,7,16,0,5,16,5,-44,-8,10,-1,5,5,9,-2,39,37,7,6,6,25,-8,36,53,15,-11,-9,-11,5,-15,-18,-39,-15,-15,-12,-14,-5
1551476168688876,4,-5,-9,-14,7,-3,3,-12,-12,-9,-65,-35,-3,1,-3,39,6,-11,-85,-57,-6,-14,-16,-14,-4,-52,-28,10,15,7,0,10,11,5,80,71,-5,-10,-39,-75,16,17,33,-52,-21,-13,5,63,-8,11,25,19,5,12,26,55,-2,-3,13,-23,-3,1,1,3
1551476168748833,6,3,-17,-9,3,9,2,25,-3,1,-12,-15,-9,-8,-37,-38,-27,10,112,103,4,-14,-18,-16,6,3,9,-59,-5,13,19,30,5,74,65,17,29,15,10,-1,-32,-36,81,-2,-3,32,35,37,-9,20,-59,33,14,13,12,15,19,-29,23,47,-17,-28,-33,-37
1551476168793973,0,81,122,127,32,33,36,28,-5,18,-39,-112,-34,-48,-45,-24,-71,-128,-84,-42,-15,8,6,-25,78,-9,-12,46,11,-10,-40,-126,23,-128,45,80,-2,46,77,86,96,107,45,9,1,32,74,105,-86,-75,-60,-120,0,-19,3,-47,25,44,-100,-49,0,-26,-93,-95
1551476187378639,-5,6,13,21,10,-21,-10,0,-8,-2,-3,-6,-1,-31,5,0,-6,5,1,1,4,49,-27,-5,0,5,-4,-14,8,23,68,8,-7,7,-5,10,9,20,6,11,19,0,-2,7,-2,-12,-8,3,-57,-20,-12,-17,-12,-65,-40,-12,-25,8,-3,18,4,48,10,-4
1551476187431284,-6,-8,-4,-14,-14,-26,5,2,-2,5,3,-18,-4,-4,-30,2,23,-4,7,9,-2,28,39,1,-2,-6,7,-12,2,10,-18,-3,-24,-6,-2,13,2,-10,24,5,7,1,-1,-8,3,7,-16,4,12,1,-1,-2,-5,-48,-36,-6,0,-7,-2,8,-2,37,21,-2
1551476187476303,10,-3,2,27,14,8,9,0,-12,-4,-2,-1,-1,-12,-1,-1,12,-1,1,-7,0,-47,-61,-17,30,2,2,-22,-12,45,-2,-1,-6,-5,5,0,6,44,65,17,5,15,3,3,5,-7,3,5,-9,-17,7,40,4,13,15,-1,-3,-3,1,-70,-3,-16,-26,-12
1551476187521434,3,0,-2,-16,-15,-15,-31,-16,11,-1,2,1,1,31,59,6,1,-1,0,5,1,19,1,0,-22,-11,-7,-16,-6,-32,-31,1,20,2,-5,14,0,11,1,-11,-18,6,-3,-15,-7,-30,-6,21,4,10,3,-5,-2,5,-6,-3,1,-5,3,10,1,-5,-6,-3
1551476187573887,-1,-23,0,-3,-6,-25,-18,-9,2,-8,-10,-2,-3,-28,3,1,-15,-6,2,-1,1,29,32,10,13,-1,-4,10,11,19,13,6,2,10,-4,65,10,25,14,7,3,-6,-9,-40,-14,-4,-8,-3,8,4,-2,9,-2,-16,-5,1,-10,-2,-1,0,-1,-11,-11,-4
1551476200795877,-25,-58,15,2,-4,-37,-104,-128,-9,-6,-28,-38,-13,4,72,45,-14,-28,-14,39,5,-17,-21,-2,-10,1,-6,-43,0,5,-23,-46,-8,14,-2,60,2,16,10,-43,7,-37,-7,-13,-6,-20,-27,27,-6,9,13,12,5,4,23,24,-13,-27,2,32,4,5,-10,-22
1551476200848452,-3,26,-14,-26,3,3,24,9,11,7,19,19,-2,1,-19,-17,-8,-2,-19,-15,-10,-22,-12,-4,-25,-7,-6,8,-1,7,-17,-37,-18,-1,7,-3,11,2,-32,-60,-56,-52,-34,-10,-32,-42,-99,-62,43,23,31,20,5,32,89,77,51,20,15,-9,-6,-2,-54,-14
1551476200901028,8,7,-49,-29,-2,2,6,-40,13,15,56,43,25,4,-11,-128,90,3,-17,-23,-30,-47,16,127,-84,1,69,28,22,39,7,-76,-111,-76,64,104,23,24,-58,-94,63,-16,-25,13,8,-2,-24,-35,-52,-65,-14,-26,2,4,-67,-88,-52,-45,-30,12,-29,-34,-54,-126
1551476200953605,63,85,32,-24,-48,-51,-42,24,7,2,-34,-6,16,4,43,17,-12,-42,11,32,-7,21,34,-4,-15,-35,-31,10,-1,29,-22,-84,-29,-18,-18,-42,55,58,57,-30,-14,19,5,-13,-32,-32,11,45,-32,30,-16,-24,-20,8,60,40,0,16,-1,22,-9,6,1,25
1551476201013620,28,19,15,61,-18,-9,13,36,-6,-17,-27,89,16,-2,0,-16,2,-9,-2,106,9,51,-26,13,29,-1,-22,30,-4,32,-9,30,30,-5,-6,-34,-35,-19,10,39,-9,-13,-7,-97,-3,-51,-11,-3,-9,-7,-4,-128,-14,-65,-18,-17,5,13,3,-119,-11,-35,25,11
1551476202933637,3,1,5,12,0,20,31,1,8,7,1,31,8,-89,-39,0,-1,3,-3,-8,-11,41,9,-20,0,-5,4,-4,7,62,8,25,3,18,13,57,2,-14,20,18,-7,6,-6,-9,-15,-32,-36,-26,12,0,-18,-32,-45,-84,-73,-47,-7,1,4,9,12,30,-26,-7
1551476202978772,6,-8,-14,-47,0,-26,22,-6,-7,-2,7,3,10,-10,-44,-10,-20,8,16,49,-4,59,32,-5,5,-9,-10,47,91,-38,-26,-21,-5,-6,-22,-80,-78,25,-1,-7,5,-2,-3,5,-1,-66,-38,1,3,10,15,127,88,9,31,17,7,-3,-23,18,10,1,-52,-11
1551476203038787,-16,-9,3,64,-71,-22,-3,-13,16,12,4,70,42,-16,6,-2,-1,-4,-8,-45,-46,-33,-49,-2,9,6,6,-24,-67,-9,41,4,-17,1,0,14,13,12,-32,-2,7,0,-3,33,19,26,26,-5,-4,-3,-3,-42,18,-3,-26,-20,5,-1,2,40,44,6,23,-1
1551476203083428,-3,-7,-4,-15,24,-1,13,0,11,-3,9,-33,-34,35,10,-13,6,11,28,69,32,32,8,-4,6,-15,-51,-128,-52,-20,-36,-20,-10,-1,-6,-14,-3,-10,-11,-6,-4,7,6,1,-24,29,50,8,-13,10,80,98,127,20,-8,4,20,16,-5,77,19,-21,-34,-15
1551476203128564,-1,2,-23,0,-38,17,24,30,-2,3,-7,5,-1,-38,-47,-6,-12,-2,6,40,38,8,25,41,-29,6,0,-22,-20,3,-1,-16,12,-13,-30,-31,16,-5,3,15,-13,2,27,23,-24,-20,-19,-12,13,56,27,-55,-33,-20,-1,-1,1,111,-57,62,60,7,1,-14
1551476211438548,-13,18,0,-14,34,-2,40,-27,20,12,-3,-3,-39,-50,-40,-4,3,40,0,-36,-20,9,32,22,27,13,19,12,27,23,38,-15,-3,-14,-24,8,-36,-12,-104,-29,3,-15,7,-12,-22,-51,-21,-57,2,26,5,-36,9,-7,69,-22,15,-16,19,18,-22,32,58,29
1551476211491122,-3,-15,0,44,74,72,21,-1,-8,7,3,61,34,-5,-44,-78,0,-5,-15,-20,40,-2,-2,-8,17,13,9,-6,23,-25,-15,19,-1,25,-11,2,58,116,15,-33,-26,-17,-22,1,27,31,3,7,2,-1,-13,-23,17,14,-22,-27,4,5,4,-1,-7,-16,-27,36
1551476211566017,0,-3,2,18,28,28,2,9,0,-2,5,-9,-4,56,41,3,-2,-8,0,86,95,-11,9,-3,-7,2,-1,-29,-27,-28,-15,9,-2,-5,-3,-70,-92,-20,26,4,16,-3,-3,-16,-11,28,-27,-10,-4,-3,-11,-9,-11,-22,-5,22,5,3,2,-21,-54,9,-15,-11
1551476211626032,2,6,3,-1,-104,19,20,0,0,0,6,18,28,6,11,-43,4,1,-8,-4,41,9,-18,3,-14,-10,-4,-5,1,-25,-33,-35,-2,-8,-20,-27,-4,-1,10,-87,-12,8,19,127,69,-1,6,74,4,-1,-12,-71,-29,-25,-16,-34,4,-3,-2,-7,-72,1,36,6
1551476211678611,5,3,-11,-35,-24,-23,-17,1,-9,-4,-1,23,44,15,-11,-12,-9,-3,11,-57,-30,0,14,-7,4,0,-24,-45,16,1,4,-8,2,2,0,-13,43,16,16,10,-13,-5,53,49,-37,-2,-13,38,19,-3,-32,-102,-79,10,2,7,0,2,-4,33,-24,-7,-2,2
1551476219951389,-2,-2,-1,-2,-1,-1,-1,0,0,-2,-2,-2,-1,-2,-1,-1,-6,-1,0,0,-2,-3,-1,1,-1,-2,1,-1,-2,-2,1,1,-4,0,-1,-2,-2,-20,-9,-2,-6,0,-3,0,0,18,-12,-2,-4,2,-1,1,-1,-2,-33,-3,1,-2,-2,-3,-2,-9,17,-3
1551476220018845,0,-1,0,-1,0,16,-20,-2,-2,0,0,0,1,17,43,5,-2,1,2,1,1,0,13,1,1,0,1,-2,-1,-3,-17,0,-1,0,-1,-2,-3,-31,-8,-2,-5,-2,-2,-1,-2,-6,-11,-1,-4,2,-2,0,-3,22,4,0,-1,-4,-2,0,1,9,19,0
1551476220056046,-1,0,1,0,2,1,6,5,-1,-1,-1,1,-1,7,7,0,-1,0,0,-1,-5,-3,-12,-2,-2,3,0,-2,-3,-13,-7,2,-1,-1,-1,0,0,1,4,1,-2,0,-1,-2,-2,-2,-18,-5,-1,0,-2,-3,-1,-2,21,-1,0,-1,0,-3,0,-18,-18,-2
1551476220108623,-1,-3,-2,-1,1,4,7,3,0,-1,-2,-5,-5,-22,-20,-6,-6,-2,-2,-3,0,27,-38,-6,-2,-1,1,1,3,15,30,3,3,3,0,2,3,-8,17,4,2,3,1,4,1,-2,14,8,1,2,-1,1,2,0,1,1,-2,-2,-1,-6,-3,5,-14,-8
1551476220153758,0,-1,-3,-2,-7,-2,-6,-4,-10,2,-3,-3,-3,-6,-9,-5,-5,0,0,-1,1,-3,-5,-4,-3,-7,-5,-1,-1,6,-2,-8,-4,5,0,-1,1,-6,15,10,0,2,0,-2,0,-2,-5,-1,-1,-5,0,0,-2,-3,-4,-1,1,-2,2,0,-3,6,5,1
1551476230420953,-2,-36,-69,-79,-18,-3,20,6,16,2,-20,-64,6,13,31,8,6,8,2,-66,10,16,-8,-30,-10,11,12,-46,9,-6,17,0,-6,-3,-13,-39,1,14,-8,26,-14,-11,-15,-49,-24,-11,-10,-17,-1,1,-3,5,1,-60,-95,-8,-1,4,-15,-10,0,44,73,7
1551476230488409,1,21,31,37,28,19,22,-8,-16,-5,18,9,-19,-45,-80,-25,4,10,28,4,-32,-79,-44,0,4,1,5,35,22,80,72,5,4,19,-20,4,-8,-22,-45,16,7,14,-15,5,-2,-6,-39,-8,-5,-2,7,12,19,71,71,-3,30,23,14,9,2,40,90,81
1551476230557372,9,-5,3,-15,-22,-18,46,0,17,16,12,5,9,47,23,33,4,9,18,12,16,53,22,12,5,23,15,-5,-2,7,25,15,-33,-34,-54,-20,-11,-22,-80,-50,-19,-32,-9,-6,-11,-65,-23,-81,-12,-8,4,-4,-7,-53,-21,8,11,-14,9,25,3,9,9,-3
1551476230601003,6,-2,24,6,-19,-37,-67,-2,-4,-6,5,9,10,24,6,-1,-3,-6,-1,2,4,35,33,20,-3,-3,-3,-9,5,12,22,11,-3,16,24,55,26,68,49,14,6,12,1,-29,-19,-65,-70,-9,-12,-14,-1,-8,-8,-27,-43,-39,-47,2,-3,-25,0,16,9,-14
1551476230638697,94,70,16,24,-6,-13,-28,-14,-31,-88,-20,31,5,-30,-7,-7,10,-19,-13,-8,0,14,29,-12,22,-2,10,13,-2,8,14,8,-62,-5,15,14,10,13,13,3,50,25,-12,-31,-26,-23,-24,-22,3,-15,-13,-10,0,12,13,1,-25,26,49,104,-19,-18,-27,-2
1551476244108591,-45,8,5,-3,-14,-3,-2,2,25,-18,17,-6,3,-1,33,14,3,-12,4,-11,-21,-5,-45,-7,-31,15,35,76,45,-6,20,-5,-5,-12,-3,4,2,-3,-15,-10,2,9,-8,-22,13,23,52,20,4,13,5,13,-7,-38,-20,-10,18,-27,-9,5,-9,15,-56,6
1551476244183466,-35,-33,1,20,-9,6,43,1,7,-6,5,9,2,2,-7,0,21,31,-5,-8,14,16,14,12,4,23,26,34,-6,-19,-6,8,26,-4,-14,-4,-1,-9,-37,-2,-13,18,-5,-37,-6,-2,11,-1,-11,-22,-10,-2,-12,-2,-4,0,6,-12,4,53,21,-8,0,1
1551476244221156,-15,-10,-6,-43,-9,39,12,-11,5,22,-5,-6,10,-29,33,2,-3,-27,17,0,3,10,-58,12,-5,19,9,26,3,-19,-38,-24,-58,11,19,15,8,18,27,-45,90,48,-6,-19,7,56,95,86,-43,-3,11,17,8,8,52,56,-17,-3,60,58,-14,19,8,15
1551476244273730,-3,69,-69,-60,2,1,-41,-15,-10,-3,-3,-19,-5,-22,-23,-32,4,3,1,-4,6,-6,34,12,-35,-16,-9,-16,-8,-14,-19,-19,15,-6,-23,-6,4,4,-17,-3,0,-50,-55,-17,-5,-15,5,-12,0,-62,42,38,-4,-5,-1,9,-13,-55,-39,-24,-9,1,-42,-40
1551476244341188,24,49,-13,-42,-19,-33,-75,13,-44,-9,10,9,16,28,104,4,0,47,4,23,2,2,-3,3,-39,-52,-7,-20,-15,-11,-30,-54,11,-25,-6,-2,-1,3,10,24,-42,48,-22,-82,-3,-9,-36,-34,22,-47,-42,-3,19,11,3,14,-2,32,18,17,-2,-2,-6,8
1551476247618759,17,-9,23,-86,-29,-5,-6,-15,6,3,3,49,-27,-20,6,8,6,-3,23,90,-7,-17,-11,6,-8,2,52,44,38,-13,-6,3,-7,15,-12,-61,13,26,25,23,-9,-6,15,-32,-6,-11,-19,-19,-5,-1,12,28,-20,-7,3,17,3,-5,0,-81,-16,11,14,8
1551476247655956,-4,0,-4,34,9,-7,-8,1,5,28,-29,-82,-1,7,-2,0,6,-4,-25,-25,23,20,0,-15,-8,6,4,-34,-38,-24,-16,7,-1,-4,11,55,45,10,-5,-26,-7,-9,17,28,-31,-16,2,8,1,13,10,-59,20,13,15,8,4,-17,-41,12,13,4,17,-2
1551476247701090,-1,-11,-4,-13,-12,5,0,-2,-13,7,30,63,13,6,16,4,0,3,18,-53,2,-14,4,11,4,8,16,-3,0,24,-34,-7,6,-3,20,43,-2,-4,-24,-21,-6,-7,-4,-44,-17,-99,-9,22,3,3,33,46,38,10,-8,6,3,-4,4,-95,-39,1,-14,-13
1551476247746226,3,-13,-33,-110,-11,-37,-3,-9,-4,-17,-16,-33,2,-18,-18,1,-3,-2,-12,-9,-28,-12,-15,-2,2,-5,8,-62,-7,9,4,2,-1,9,23,-65,-4,-11,13,6,2,9,11,27,12,18,-10,-9,0,15,13,71,6,11,-3,0,8,3,-50,17,-4,-27,-16,-25
1551476247798305,-4,-3,-61,-6,-9,-2,7,6,1,-13,-62,40,9,19,4,1,-5,-11,-47,-33,-15,-5,0,-10,1,-21,-71,-6,-1,-15,-9,-6,-3,11,-31,-29,-10,-7,2,-2,3,-3,-17,8,12,20,-1,-12,4,-15,12,7,5,7,1,-16,-20,5,-54,-61,-15,8,10,2
1551476255937524,8,9,28,12,-3,-3,9,35,-1,-3,9,-35,-9,-2,4,18,-3,-4,15,-55,-18,-6,-13,-10,-1,-6,8,-63,-9,3,5,-4,3,-46,-18,-71,-4,8,24,42,-9,-52,13,61,6,1,20,31,-5,81,2,7,-6,-13,-28,-48,-3,-46,-23,10,25,1,14,44
1551476255988755,11,-17,-36,42,7,0,-15,-44,6,5,-32,80,14,15,13,1,4,15,-28,-19,-8,-12,-16,13,-11,40,-20,3,-30,-15,-25,-28,7,-2,-67,-48,-5,15,7,0,-3,22,9,70,30,-8,-23,-18,-13,-67,-19,-65,-9,-2,2,7,-36,7,-35,85,30,-2,-7,-17
1551476256033392,19,-35,-25,73,-15,-3,-1,-11,12,10,-55,-123,2,8,6,7,13,34,-7,-55,-14,-4,0,-2,-6,13,20,61,-39,-2,0,10,-25,5,2,-41,-13,-11,-3,-5,-4,6,-9,50,2,-1,-3,1,-6,-22,-18,86,-18,-20,-10,-18,8,-13,-16,-126,19,3,13,4
1551476256085971,-21,-1,7,-16,-18,-9,-14,-12,13,-13,21,28,-8,-11,-5,0,8,25,0,-5,6,6,12,18,-14,-37,-27,-35,-7,-7,-12,-13,-10,-29,-39,-53,9,7,6,1,8,18,29,-44,-9,-1,-4,-1,-12,-36,52,72,23,-6,-9,-11,-3,16,3,34,-17,-7,-10,-21
1551476256138600,21,-19,-5,-10,56,-6,0,-54,51,-3,30,6,5,4,6,69,-21,-17,3,99,9,-2,-2,-3,-100,-115,21,54,17,21,11,-68,19,93,14,-75,-16,-13,-31,-11,-25,29,22,-22,-27,-18,-77,-128,83,22,14,-21,-22,23,44,33,103,10,69,101,-44,-28,9,44
1551476263331041,56,-31,72,57,8,-12,13,21,12,69,56,16,-29,17,77,76,25,76,-16,13,15,0,-20,19,-3,45,-2,14,-24,-5,-5,-23,-3,-1,-16,16,-1,11,1,15,-21,-58,-25,26,11,-8,-5,-7,6,-31,-13,-4,-72,-5,-2,0,3,-38,5,28,33,15,16,2
1551476263391553,-4,2,-13,1,-17,-15,-16,2,-5,-23,7,34,-21,-14,-32,4,-8,26,-70,53,-20,5,22,-3,16,-19,2,-44,-18,-17,3,14,4,-12,-18,-111,31,20,22,28,-30,-3,-17,-128,-21,2,-4,-3,11,-23,29,-41,-10,0,-54,36,-7,17,-15,-100,3,24,35,-3
1551476263443637,21,10,15,-33,-10,-9,-16,-19,-43,-3,-32,-27,0,2,-27,-50,-11,-22,-19,23,-62,-36,18,12,-12,-4,-8,-36,5,-4,9,-17,8,-9,2,16,-37,-15,-19,-22,-13,19,7,33,-4,-18,2,19,32,-28,-8,-18,-36,-7,19,8,-12,-5,22,99,44,6,-23,15
1551476263488766,19,3,-9,41,29,30,29,-8,-5,23,-12,5,0,3,-48,-38,-30,-6,-9,74,66,-31,-53,-85,38,51,-8,34,-52,-7,49,102,24,17,48,-69,41,20,-58,-12,-39,-19,87,-85,25,14,-50,36,-3,16,64,-128,7,46,89,127,-11,-13,68,15,-18,39,127,127
1551476263556221,-12,79,-13,62,8,-27,-75,-70,24,62,-34,60,-42,-9,106,-7,95,16,-51,46,47,26,11,72,-31,-62,-52,44,40,-7,-61,-84,-12,-32,21,9,10,-52,73,13,16,-14,26,-14,21,32,24,-21,-11,-30,15,89,-6,-19,-6,-66,6,-22,-6,-10,65,40,-8,-14
1551476274971170,9,2,9,53,16,-6,-17,-14,-9,0,-11,3,19,24,4,-32,11,2,-8,-47,-37,-13,-8,-5,7,8,3,2,-4,-14,0,7,-4,1,3,76,50,17,28,18,4,-3,4,-35,-9,-10,-1,-9,8,7,-5,-13,-41,-20,-3,-54,6,0,-12,-1,-22,-27,-19,107
1551476275023743,-1,1,-25,-63,19,34,23,22,-2,5,5,77,65,26,12,10,3,-7,9,-69,-50,-22,-14,12,-7,-7,-21,-59,-20,4,15,-43,-7,-2,-19,-20,7,-11,-2,-35,0,6,2,48,10,-3,-4,12,-5,-2,-5,-16,-6,5,-4,4,-7,-10,-24,-61,-26,-13,-8,-15
1551476275068387,-3,5,2,16,-35,-3,-3,6,3,1,6,4,15,-3,-10,-37,-11,-23,-36,-3,5,-3,11,17,-4,-6,-4,-23,-19,-12,-10,-3,-1,-8,5,1,16,7,-4,11,1,-7,6,-80,-41,-3,-3,1,2,-2,6,-27,-18,-7,-12,-17,-2,-6,-6,-8,-39,-6,-10,-3
1551476275113516,0,0,5,-5,-9,-6,1,27,0,11,5,-42,23,10,6,9,-1,3,2,1,19,6,-9,-11,-4,2,4,23,10,6,8,-1,-1,-5,0,-9,-1,3,1,2,-3,1,-6,8,16,8,5,19,6,5,5,43,5,-22,-47,-24,-1,2,-11,-29,-12,9,4,2
1551476275166089,0,-4,-14,-71,-6,-2,1,13,1,-2,15,57,-8,-5,-1,-6,8,4,3,-26,-2,-5,-6,-24,8,21,46,40,13,4,-2,-5,-12,-32,-42,-67,-8,5,5,3,-7,-9,-3,47,21,10,12,-7,-10,-10,-5,-73,-13,-1,4,-6,8,8,8,12,6,-6,-3,-2
1551476285478432,-11,-14,-32,-93,-22,-4,-3,3,0,10,12,-5,4,-12,-13,-7,-5,6,-13,-27,-7,-5,-9,-16,1,18,86,47,6,-8,-16,3,-8,-8,13,47,-5,-4,-4,-55,-13,-15,-30,-76,-13,-7,11,-13,-11,5,-5,10,17,4,15,-1,14,-1,-5,10,-12,-13,-19,55
1551476285523558,2,17,12,34,11,-2,0,-4,-6,-36,-47,4,-57,-2,2,-25,1,-2,9,60,-11,3,3,-21,4,-3,20,53,22,3,2,22,0,-6,-9,-60,-28,-10,-11,-3,1,12,2,57,44,14,11,6,6,5,-7,-31,-50,-7,-14,4,-9,18,48,31,22,-2,9,-17
1551476285568693,-2,-9,-30,-102,13,6,-4,-14,-2,-19,-67,-36,4,-4,3,36,2,-8,1,18,-6,10,9,-14,-15,-1,-14,3,0,-5,-10,-74,74,-53,5,5,-12,-5,9,-12,-10,37,18,23,8,7,-2,79,-66,58,43,21,23,2,-9,-87,28,-56,-25,-33,-22,-16,-21,76
1551476285598454,-62,-66,11,6,-27,7,26,122,-81,-101,79,42,14,19,-27,-80,-35,46,-17,9,-27,10,53,-71,59,6,72,52,-23,35,29,124,12,77,-35,4,-67,-7,4,-128,-36,12,-55,4,-60,-25,-44,19,69,-128,-110,-58,-27,-6,54,-70,-119,-82,-96,-59,-1,22,1,-105
1551476285636260,-64,27,19,40,66,24,-29,4,29,-2,-12,-1,80,2,-10,-65,54,72,53,22,116,-6,-87,14,73,61,24,-18,81,-8,88,-29,68,51,39,14,73,-20,-13,0,4,46,5,9,46,22,23,-31,-44,0,-25,-15,-25,-3,-4,-9,-3,18,-18,-1,-29,-22,14,-14
1551476296616096,-3,-11,-17,-63,-36,-6,1,-12,-1,4,-11,17,1,-8,-8,0,10,16,3,-2,22,5,3,1,-30,-44,-50,-14,-18,-5,-2,5,-4,-2,-5,23,12,3,9,9,10,15,13,17,2,-2,-1,14,0,-13,-20,54,10,0,-5,18,-6,-9,-22,-74,-28,-13,-5,-6
1551476296661231,6,3,-4,-32,-8,9,6,27,22,20,21,-3,-1,6,1,-29,-23,-4,12,8,7,-1,0,-3,1,12,8,6,-4,-5,-2,-4,-7,-29,-21,71,17,-4,-7,-19,-6,-1,-12,-88,-37,-17,-11,2,-13,-33,-60,-61,-14,-8,-14,-8,-4,-1,-4,39,14,5,2,-4
1551476296713311,1,-11,1,44,23,5,1,5,-5,-7,-20,-8,-19,1,-2,-37,-4,17,33,24,-12,-12,-9,-66,14,17,39,28,8,3,3,74,9,39,22,53,15,3,-2,4,-11,0,-44,-45,-11,-9,-2,-65,-6,-2,-6,-36,-19,-5,-38,78,31,32,14,8,7,-19,8,-33
1551476296758446,-7,59,45,-15,4,49,32,-39,-44,-98,-105,29,3,-46,-11,-54,14,34,70,4,29,65,16,23,5,9,29,-22,-16,-52,-2,14,13,9,58,-3,6,-10,-11,6,-5,29,57,-53,-58,-21,-23,-51,-1,-19,-3,-34,-20,-23,-2,14,-7,-8,-1,-12,-7,5,-6,32
1551476296803690,2,-3,-1,15,27,-17,-5,4,8,12,-5,13,28,25,9,7,0,-9,-49,-65,-78,-20,11,2,-20,-20,-30,56,79,17,10,54,5,13,4,77,22,7,-7,38,26,-8,2,-44,-7,-7,12,-60,-28,-5,-44,-80,-58,-21,-11,-9,16,-16,-22,93,4,0,-33,-116
1551476311413257,-80,21,-50,65,82,15,84,-98,1,-29,-76,106,-27,70,-104,103,-105,24,25,127,-68,127,-32,-7,33,17,-34,-24,10,90,33,-94,56,10,-60,-128,-82,-90,91,89,49,34,-110,-100,-40,-96,127,-92,2,1,-43,-84,-93,-74,51,42,-101,-34,67,33,-23,-17,104,-98
1551476311451185,7,14,104,1,-66,-1,114,-54,60,62,15,-19,15,93,35,-65,-8,-24,-32,62,69,44,-29,-117,61,-77,-21,-58,36,49,-86,-70,-46,-50,11,-70,58,14,-96,-41,15,-39,67,-43,121,23,-48,0,-44,-41,82,18,40,-56,-36,-28,8,-9,107,-32,13,-44,-32,42
1551476311488651,-65,-73,-33,35,-2,-75,-91,-2,-36,21,10,107,-26,-58,-32,-60,-8,-32,-51,-26,33,-30,-56,26,-7,27,18,53,-44,-55,-51,12,-48,-20,15,26,-37,-16,-60,-103,54,14,38,22,13,-9,-10,80,-49,24,43,17,13,21,57,84,29,-11,-15,3,-17,-11,-13,45
1551476311533289,-10,2,16,1,-10,22,-22,-15,53,-15,-27,22,10,1,9,-8,22,68,26,12,9,-40,-22,-64,-1,18,-66,-9,-34,-6,-6,-15,-32,37,-17,-23,-1,21,9,-2,-59,-29,-61,17,-2,-14,-6,-97,26,6,12,0,-12,-26,-5,55,43,-37,-41,2,-12,4,1,-15
1551476311570992,35,14,7,78,18,8,-19,51,-30,16,6,-87,-44,-10,-11,-4,-26,2,6,-19,-7,2,19,-32,5,0,16,16,4,18,10,27,-12,-16,-31,-4,-22,-12,0,23,-5,5,31,32,9,39,-22,14,7,0,29,-1,13,23,-42,-4,15,-14,-7,50,-3,7,-51,16
1551476313708745,-70,1,62,97,49,5,123,-68,-59,-19,10,-97,-33,53,108,-111,-24,79,-54,-108,-6,-18,-16,122,0,16,-18,-95,-28,-84,-90,8,3,57,10,-50,43,-39,-106,8,-20,56,50,-31,-48,0,-49,-55,-7,36,14,127,54,-113,-112,-8,6,-8,-13,25,-17,30,13,-89
1551476313760824,7,-21,-24,-105,71,74,-16,4,54,-34,-23,79,-36,46,-116,119,34,1,11,95,-31,-6,-85,44,3,-41,-41,103,-128,1,105,-15,10,9,8,62,-18,-11,-28,14,-15,-11,18,42,1,-26,-128,-30,-17,-10,-4,1,-69,-104,-82,-32,-3,4,41,-47,-29,-128,-93,-26
1551476313821131,-24,-5,26,-80,-11,-22,-5,-33,-1,35,72,-46,0,29,-91,0,43,-58,3,-11,6,69,-2,-58,17,9,1,28,39,-3,-92,60,87,38,7,59,25,75,92,97,-14,58,-56,-87,-8,22,29,-17,-23,-1,12,49,28,61,-9,-41,-13,-74,-36,-13,42,14,19,-1
1551476313888296,-16,-24,-3,-10,-1,3,-25,-17,10,103,96,-91,-62,-128,-40,-6,-16,-58,-19,-74,-47,5,19,-18,2,-21,22,104,-86,-68,53,-18,-6,2,-45,-63,41,-109,-55,69,79,81,21,38,127,89,19,81,-8,54,18,-112,-3,104,102,-55,38,16,55,-2,-19,86,100,-6
1551476313940873,-14,58,37,45,26,127,76,127,-48,-91,-45,-50,-90,-29,-99,23,-47,-97,-85,48,-9,-83,-49,-19,-21,-45,-41,-57,-93,-45,69,3,-11,-10,10,-28,3,-81,-32,-84,9,24,44,69,70,50,27,20,-25,-18,7,72,50,-10,-51,-47,15,-82,-10,29,123,-39,-81,-36
1551476317226376,-18,2,-5,-23,-55,3,-101,-13,16,8,15,87,101,-43,93,-49,5,-2,-12,-67,-43,-10,127,-9,48,21,15,-52,-24,-54,127,1,-33,-4,-32,-100,-49,-126,-69,-3,2,-14,-12,6,-50,38,-92,-38,40,-12,3,11,-72,-119,116,29,-15,-18,-10,-71,63,92,73,52
1551476317278510,2,-10,34,7,27,69,77,28,-3,-8,18,61,-8,-123,94,11,-28,-31,-16,-28,14,56,-85,8,-33,-2,12,60,-10,82,-19,27,11,-43,-34,-7,-38,-8,-99,-41,78,30,-8,-20,-22,-92,-58,-48,49,49,-64,-97,-19,-36,-17,100,-28,43,40,25,-66,-8,-82,-42
1551476317331031,0,0,4,8,-45,92,25,-39,4,9,38,5,-96,-29,-16,-77,25,-8,5,15,-19,55,127,-44,-9,-20,-30,-79,-17,47,-10,5,-13,17,-24,-17,127,85,25,47,-21,-23,-23,18,50,-101,42,-9,-23,-4,14,5,-19,-47,-95,-16,7,-1,-18,-87,34,-21,127,83
1551476317383606,-21,-21,-16,-36,-11,-20,-81,-31,-28,1,-6,45,12,-15,-78,-100,-81,62,49,87,2,-12,-1,83,-57,-16,-54,-98,-21,21,16,-33,-16,-25,-15,21,14,20,16,-84,20,-27,5,-1,-41,26,48,16,-30,5,12,41,31,-14,-8,7,-10,10,-19,-68,-18,-1,-18,-18
1551476317436183,24,-4,38,71,-10,17,25,-9,3,19,23,27,50,-3,8,40,5,-4,-1,-29,-16,-23,-83,-34,-11,7,14,-2,11,-38,7,-17,13,-9,-6,-54,-15,28,45,-32,28,25,26,68,26,57,88,96,6,1,-9,33,40,-9,-14,-14,0,-18,-15,-16,-7,0,-39,-29
1551476327448435,-1,10,48,82,-2,8,1,-26,3,-12,-20,17,10,-1,16,31,4,18,43,83,24,10,12,-25,20,-14,-91,-78,-40,-11,-7,-102,3,21,48,73,-23,-22,-20,105,-13,2,-12,-28,-27,-9,-29,-81,0,2,12,-75,-3,-17,-12,-36,12,25,-10,22,47,45,52,51
1551476327508450,-2,2,44,-22,13,0,9,-40,20,-48,4,-10,35,22,27,36,15,0,-54,-34,-14,-13,-26,-8,-22,40,58,97,34,0,-38,-28,34,-22,8,-30,62,16,50,12,3,31,61,87,22,33,34,-46,26,-6,-60,-128,-61,-53,-12,48,-60,0,59,15,17,-10,-8,16
1551476327561026,8,-32,-17,86,-32,4,-2,29,0,4,-3,61,25,3,1,-7,-47,-56,-105,-57,70,7,31,-24,48,-26,44,62,38,36,11,1,-49,62,109,111,75,-45,-44,-89,-8,-30,27,-120,-75,-27,25,80,-8,13,4,122,65,41,6,21,21,15,-42,28,-121,17,-24,-20
1551476327621042,-5,-6,-21,-20,-44,1,21,29,-7,-14,-16,-35,-32,-14,2,8,12,24,65,63,-29,17,2,-4,-19,-10,-59,-115,-44,-30,19,30,-3,-28,-29,-13,-9,20,-12,18,5,-26,-22,-23,41,7,10,64,0,19,29,75,-60,20,64,54,-5,-4,-34,-116,-51,-38,-49,-36
1551476327665683,17,9,-7,-62,-13,33,42,-8,-7,-17,-8,-55,-41,-88,-86,-29,13,12,20,-52,1,15,-50,-40,10,26,27,45,33,55,36,2,-6,-14,-26,-29,-22,4,24,57,-7,13,55,72,40,-9,-34,-49,-11,4,24,-63,19,-5,-13,27,-2,-48,0,-11,-21,-12,33,14
1551476340423794,8,-4,15,-15,-5,1,-11,-2,5,12,2,-12,4,0,-7,1,-4,20,11,-22,9,3,19,-9,-20,-7,-52,-96,-33,-17,-17,-5,-1,14,9,-7,-6,-5,10,-6,30,-20,16,18,6,-1,-11,3,14,-38,-19,-38,-1,0,3,16,3,15,-5,-26,-2,-1,23,-42
1551476340468489,30,35,13,38,-1,-8,9,-3,-11,10,1,41,4,-24,-54,6,4,-2,0,-27,5,-23,44,16,14,31,16,46,11,62,21,15,4,19,7,-6,16,-1,5,11,1,-5,-35,46,7,35,-6,-2,4,10,-3,3,-1,43,36,5,-1,16,14,-1,-1,-4,15,5
1551476340513567,-17,21,-14,-53,-15,3,-6,-14,-4,-41,-39,-22,-9,-32,-30,-4,-26,-8,8,25,1,-5,-10,-12,11,5,17,-4,0,-11,-10,1,-8,-7,-5,-18,-5,0,-17,-11,-16,3,10,18,6,1,-2,-3,7,3,22,3,-1,-10,11,8,-3,4,3,-20,-3,2,-4,3
1551476340573582,-7,8,1,5,-1,15,-4,-6,-15,0,6,0,2,-4,0,-12,4,3,9,5,0,1,7,9,-5,-6,5,-12,0,6,-4,0,2,-5,-12,-6,-7,2,-7,0,-3,-2,0,-6,-5,-52,-48,-6,2,4,-14,26,7,46,46,9,-4,-5,-15,-20,-1,0,-1,6
1551476340610781,17,15,0,23,4,31,34,-2,-14,8,7,6,-1,4,2,4,1,0,14,-32,-4,-24,-52,-15,-9,1,-2,1,-3,-3,34,-8,6,-3,0,-14,-4,19,-36,-4,10,0,4,54,5,-25,23,8,-1,2,11,13,4,3,-6,2,2,-5,-5,-7,-16,10,7,-6
1551476343296165,6,-3,-3,-24,-9,-3,3,2,2,-3,-2,-1,8,4,7,5,15,-3,-2,-13,13,-4,-1,3,-10,18,4,29,26,14,-5,7,-4,-1,0,-15,13,-20,3,1,-3,-4,-1,-2,24,7,9,7,-5,-7,2,3,30,19,17,13,-8,-14,-2,2,23,7,3,13
1551476343340764,-12,-6,0,10,21,15,0,18,-11,-26,-6,-5,6,-2,-12,20,-18,1,-1,5,-1,-7,-19,21,-12,-8,-4,0,-8,0,-20,14,-7,-3,6,-18,-31,6,6,19,-22,-6,16,12,-16,12,11,-31,-23,1,-1,25,-9,37,56,-106,37,16,-11,14,-17,24,77,-51
1551476343385933,36,15,-12,-5,-26,15,107,-101,40,18,-9,-36,-44,-12,62,-71,29,8,-6,-45,-44,-21,-24,-70,-13,6,-7,-32,-33,-18,-61,-63,-17,-8,-9,-23,-18,-23,-79,-9,0,-17,-7,0,-4,-22,-66,14,2,1,6,23,12,-12,-15,46,-3,5,5,17,17,-14,-1,23
1551476343445921,4,-6,5,15,16,-10,4,46,-5,-2,5,7,17,-11,-5,20,-8,0,3,11,18,-13,-2,6,-5,-3,-4,12,16,-11,0,11,-1,1,-3,2,12,-12,6,21,-1,-4,1,6,9,-9,-2,-2,-3,2,-2,3,8,-5,-6,-5,3,0,-6,5,5,1,1,2
1551476343498497,1,-2,1,2,-5,8,-1,0,1,1,0,-1,-7,8,2,5,-4,2,0,-4,-8,6,-3,-2,-2,-6,-4,-1,-5,7,1,-2,-5,-2,-1,-5,-4,5,1,-3,-1,-5,-2,-5,-2,4,2,-1,-3,-4,-1,-4,2,5,-1,1,-5,-2,0,-1,5,6,1,2
1551476345245904,-65,2,10,-58,-7,6,-11,2,6,-6,-14,-14,4,0,11,6,8,2,9,10,15,7,22,8,5,10,13,6,23,2,26,5,-37,-25,12,65,4,6,4,-1,16,15,-7,80,24,-3,9,-4,-14,6,5,91,1,-7,-1,-8,2,-21,-17,33,-6,-6,-5,-3
1551476345298475,11,4,7,-35,6,1,2,10,12,-12,-5,-30,8,2,7,-1,8,3,-2,-75,-6,-3,-6,-2,-2,34,17,-66,-8,-5,-4,2,4,-10,-24,-29,9,3,-5,2,9,4,0,39,-1,-5,-4,-3,12,14,5,15,10,3,1,6,0,3,2,-9,-3,-9,-3,2
1551476345373374,3,17,36,64,19,5,-1,0,26,-3,-41,5,0,-8,-6,3,-4,-1,-5,-21,-8,-5,-50,-10,3,10,15,-45,-1,-68,-11,0,6,8,9,-8,14,36,23,12,-4,-5,-6,-45,-2,24,-13,-2,1,-12,1,-26,-17,-65,-71,-14,-9,-5,5,15,-15,-30,-23,-11
1551476345411068,12,4,-10,-16,-4,-107,-73,-2,-5,-9,13,28,13,83,88,0,10,-7,12,14,3,11,-54,0,12,3,43,-14,13,14,36,22,22,-8,33,29,14,36,-5,16,-7,-6,11,-22,-18,-33,-7,-4,1,-3,-59,-20,-20,-1,-6,-27,-12,4,-21,36,3,12,-89,-11
1551476345485965,-17,-5,-9,-1,-14,-59,10,1,-13,-27,15,-14,-6,21,-9,3,43,45,33,24,6,47,81,28,-2,4,27,38,-6,41,0,-8,4,-9,8,15,12,9,85,-18,8,0,4,28,46,-22,46,6,-4,-28,-2,-44,39,54,69,25,11,-17,2,-18,43,-9,33,38
1551476350908233,-17,-53,58,22,-9,-51,-40,-101,-128,87,71,-67,-23,-10,25,-75,23,-110,108,114,33,65,70,-125,69,77,87,33,55,92,44,44,68,54,69,36,54,59,117,67,-128,-42,-14,-1,-16,-48,-108,-101,67,-62,2,44,27,66,77,-7,28,9,83,-73,-7,61,96,66
1551476350960898,68,55,51,55,65,-48,-72,0,70,22,63,125,25,-25,-10,-41,-104,-19,-23,91,122,6,73,29,-14,-23,-105,-43,96,117,127,58,-77,-89,53,-128,-128,103,-105,71,16,-5,122,-40,-101,-110,-17,15,101,10,29,-19,-104,-101,58,-81,56,-48,-65,127,-20,-117,115,-92
1551476351020825,-128,-18,-21,51,-66,-128,-5,-98,-96,-60,-71,-6,-63,-106,74,-109,47,-10,-16,-73,-16,0,41,-83,110,-12,-11,21,8,65,33,-4,96,-50,58,-19,44,5,-11,76,-46,-15,73,-31,57,25,-52,-120,-72,-9,2,12,37,-21,-79,4,53,14,26,-27,54,-28,-113,-89
1551476351088282,10,25,-4,-3,-5,-62,-112,61,-50,15,20,7,-4,-35,-126,-128,-76,-7,-27,-30,-10,-29,7,-16,51,-29,-14,-20,6,7,51,13,-128,-107,-80,-77,-43,-72,-15,-107,62,11,-8,-41,-9,-51,-46,-59,26,-58,-7,66,14,-28,-26,-4,-1,-1,-25,121,-32,-30,-21,-79
1551476351148297,-20,7,-3,-26,-19,-14,-32,-48,34,2,-1,51,12,10,97,-22,-68,-22,-28,20,0,20,-31,-37,37,-18,-30,-75,-5,17,-86,27,33,53,46,36,0,17,-1,8,-19,-9,17,68,3,15,-7,13,47,-22,19,44,15,19,13,-12,-87,1,1,-64,-14,1,-37,-16
1551476356105816,-32,-9,-7,-56,-29,1,43,63,9,-5,-7,19,-8,-33,-34,-17,14,14,27,20,17,37,20,11,-9,-14,-8,92,-16,-21,-6,15,-19,-11,-28,-82,14,19,-24,-52,1,17,13,-47,-39,-19,-3,-9,6,15,49,127,10,31,12,-2,59,-14,-80,-85,-37,-18,-6,11
1551476356150956,-52,28,-21,-53,-40,-18,-25,-26,-9,18,50,-6,42,-11,-4,-20,37,14,0,-5,-31,18,20,14,-23,-43,-33,74,91,-23,-23,-1,-10,-39,5,-47,-76,-24,-22,-20,-4,-24,4,23,6,3,0,8,1,8,7,5,-5,-19,1,4,9,50,35,11,-12,1,-14,-4
1551476356203529,52,-58,-8,-10,11,0,-38,-36,-27,18,6,-20,-43,-16,23,67,0,-1,-11,36,30,-18,-13,39,46,32,12,2,-36,7,3,-58,-81,-83,-53,-35,28,11,0,-8,-20,85,8,-64,-26,-4,-5,-94,26,54,33,-8,28,-84,-75,-31,31,13,44,-65,-21,-12,16,10
1551476356248668,-39,-29,29,-57,-26,19,49,-75,-27,79,48,37,22,96,37,-1,0,13,2,88,24,21,38,-63,25,-12,-22,-30,-47,-46,-31,-15,34,46,46,127,35,37,70,-6,1,-5,3,-75,-16,35,77,25,12,27,8,-4,-1,-2,60,13,-3,-10,3,16,26,4,-15,-16
1551476356293302,-3,-9,13,46,12,-90,-72,-20,26,-10,-52,-9,2,70,81,37,6,52,-17,-16,-20,-7,-25,58,-19,-31,-26,-9,21,71,17,17,9,5,13,-1,-40,-55,-23,35,12,-39,23,104,83,60,36,31,9,-8,-5,-62,-17,21,4,-8,-3,20,14,19,-11,-58,-9,28
1551476361033572,6,9,27,-54,-5,13,16,-5,-14,-8,-2,-54,-36,-34,-39,-44,1,10,37,-22,8,1,4,-7,0,7,6,-55,27,28,2,8,7,7,28,42,2,3,1,-11,5,9,8,-31,4,10,29,18,-6,3,-2,80,25,5,1,1,-3,4,33,18,4,-5,-1,-18
1551476361101028,-5,-18,-22,-18,-13,-4,-10,68,3,0,15,32,35,-3,1,-15,2,4,30,47,5,18,-15,-10,-1,2,15,3,-44,-30,-29,-41,-12,-37,-8,-22,26,24,1,-5,-11,7,2,-27,-8,-5,3,9,4,26,12,27,8,2,-22,-58,1,11,35,34,-1,-9,-7,-2
1551476361161045,2,-14,-27,-34,-20,-14,-15,-10,1,-5,-6,-50,-9,-3,-20,-52,-12,-15,11,43,23,10,4,23,-5,-8,-21,-36,-13,-5,-24,-41,26,21,30,21,7,9,22,59,-4,9,-19,-6,4,14,4,-20,-4,7,8,-37,-6,-5,-14,14,-12,-36,-28,15,6,5,2,-5
1551476361205685,-6,-12,-36,9,-3,-7,-3,-15,3,-12,-51,-65,-5,3,14,27,8,14,8,-11,-7,-7,-10,-13,-2,8,-15,5,8,6,3,-2,-6,-20,7,15,4,0,-19,-27,7,10,19,29,-3,-3,11,-42,-3,10,29,-12,-1,5,8,26,4,-11,-22,-36,-5,-1,11,11
1551476361250821,-13,-4,24,-13,2,-5,-2,-21,5,7,-2,-31,-7,-9,-10,17,-11,-13,-44,-49,10,9,1,-1,1,-2,15,-86,-18,-2,9,28,-2,-2,-13,-1,19,0,8,-1,13,27,4,-21,-5,12,0,-2,-3,1,7,34,-15,-14,-14,-49,-6,-11,11,23,18,10,17,61
1551476367130919,64,25,7,-15,0,-21,-18,-52,50,55,-10,36,21,0,-3,-42,73,-48,-19,-30,5,2,4,-35,-3,-60,31,-11,-7,4,-4,30,6,-123,-74,-59,-32,-16,-24,-34,-33,-12,-2,19,0,6,18,-8,14,28,32,2,18,15,22,55,-6,13,-11,21,0,-2,16,7
1551476367191413,-38,33,5,23,-23,-4,-2,-6,-1,23,-19,-85,-74,-11,3,40,35,43,1,25,-89,0,12,29,28,44,17,-19,-121,3,4,23,16,40,-2,-50,125,58,40,57,-34,-5,-21,56,123,2,-20,10,-55,-59,-59,-105,124,25,-29,-16,-35,-37,4,32,46,48,-18,-18
1551476367258389,-3,-6,20,33,31,2,-42,-17,-12,-42,-26,0,-22,-18,-37,-41,-26,-21,17,-24,-91,-20,-33,-61,-13,-5,0,37,-68,-35,-12,-25,-13,-3,11,16,14,-19,4,-17,1,11,10,-23,-30,-7,20,-22,5,10,17,48,27,2,-4,3,19,-1,-20,-44,-24,0,9,21
1551476367303512,3,3,8,60,-29,-9,1,10,-10,-10,-12,-37,4,-34,-21,-9,8,7,2,-40,-28,4,0,11,39,-8,-15,-36,-76,22,17,10,1,4,4,-10,53,8,-69,10,-8,-13,-8,-6,-77,8,58,-8,33,-8,-11,-76,-49,-27,35,0,-4,13,22,127,92,-29,-48,6
1551476367363523,4,-1,-10,7,-1,16,64,-62,-16,-16,10,7,-2,99,66,41,10,1,-1,-29,-25,-86,-32,-9,-18,5,-6,-26,-14,53,-128,-112,25,73,43,50,57,80,110,127,22,8,20,34,51,27,-48,27,-21,10,-16,-54,-11,14,-74,-86,25,-30,-15,-44,-69,-81,48,-69
1551476382603613,14,10,26,24,7,2,43,23,-7,21,0,-12,4,40,19,5,-5,-18,0,24,2,-3,-13,-4,-14,9,-8,-49,-9,-1,-24,-16,-7,-24,-4,-3,1,0,15,2,8,17,2,0,-7,-3,-4,1,4,-3,0,12,1,-12,-1,2,-8,-1,0,-2,-4,9,-8,-1
1551476382663630,-2,-8,-3,-19,-1,-12,5,-2,0,9,-6,5,1,4,-4,-2,0,-5,6,2,-1,-8,-15,1,-7,1,-1,-13,-6,3,-4,-11,19,-18,-11,-16,-5,-4,-5,-19,5,29,11,43,13,9,37,61,6,-4,-6,4,1,-1,24,22,-5,-7,-6,10,-4,-1,-23,-28
1551476382700909,0,1,3,11,0,-6,-1,2,5,8,5,-2,-1,5,1,4,-11,-5,-1,-1,-2,-3,-4,-14,-1,-3,4,-2,-4,-2,-15,-5,10,38,30,13,5,4,8,6,-2,-17,-14,-1,-2,-2,-1,-14,-15,-44,-68,-22,-2,-5,-6,-3,-12,-11,-13,-12,-11,-7,-4,-19
1551476382753407,0,13,25,6,25,19,19,27,-4,-3,-4,0,4,6,-5,-2,-7,-10,-8,12,-6,1,-8,-11,-12,5,-1,-16,8,-5,-3,-36,8,-6,12,-1,-5,-9,11,65,3,12,7,8,2,2,0,-3,20,-12,-9,-20,-17,-8,-9,32,-37,-4,1,7,4,5,-2,-38
1551476382798540,-47,-42,-29,1,-21,-10,-43,-120,-27,93,7,16,-8,-10,-15,82,94,-45,16,28,9,15,63,82,-9,17,4,-8,-19,-15,-10,28,29,-19,-25,-19,-18,17,6,-46,-8,19,18,-6,6,2,40,1,24,-13,-2,13,42,12,-2,-14,-2,-5,2,-12,50,-8,-11,-98
1551476389518351,-3,-2,-2,0,1,-1,-1,1,-2,-1,-1,0,0,1,-1,2,-1,-2,0,0,-1,-2,-1,1,-2,-2,1,0,0,-2,-1,0,-1,1,0,0,0,1,-3,-1,0,0,0,2,-1,0,-2,1,0,-1,-3,-1,-1,-1,0,-2,0,0,-2,-1,-1,-1,-1,-2
1551476389556045,0,-1,-1,0,-1,-1,-1,0,-1,0,-1,-2,0,-2,0,-1,0,-2,2,-2,-1,-2,0,0,0,0,-2,-1,-1,-1,-1,2,0,0,0,-1,0,-1,-8,1,0,-2,0,1,-1,-2,3,-1,-2,0,0,0,1,0,3,1,0,-2,1,0,-1,-2,-2,1
1551476389608619,-2,-1,-2,-1,0,0,4,0,-2,0,-1,-3,-2,-1,0,-1,0,0,-3,-3,-2,-3,-5,-3,-3,-1,0,2,3,0,-4,-3,1,-1,-1,-1,-1,-14,-5,-2,3,1,-1,0,0,13,-5,-1,3,1,1,-1,0,4,14,2,-1,3,0,-3,-2,-2,9,0
1551476389638380,-4,2,2,-3,-1,4,0,0,-1,0,1,-1,1,-7,-2,-3,-2,-1,-1,-2,0,0,-11,-5,-4,-2,-4,-4,-4,-1,4,-6,-2,-4,-3,-2,-2,-1,-16,-6,-2,-2,-3,-3,-3,-8,10,-3,-3,-4,-2,-1,-3,12,-5,0,-4,-3,-3,0,-2,1,14,-2
1551476389676075,-4,-3,-3,-1,-1,1,4,-2,-3,-4,-3,-1,-1,0,-8,2,3,-3,-2,1,-2,-8,-4,1,5,-2,-2,1,-2,-2,-7,2,4,-1,0,1,0,3,3,3,1,2,2,0,-1,-5,-1,1,0,2,1,1,-1,-6,3,4,1,0,0,0,-2,-1,-7,2
1551476396770856,-1,-4,-7,-33,-15,-9,-20,1,-6,4,18,52,-22,-34,-20,-18,1,0,-13,-69,2,4,2,-11,-4,-6,16,70,6,2,-13,23,-4,3,2,55,20,-6,-10,-11,-3,-6,-10,-33,-27,7,6,5,0,2,7,19,-35,-7,-11,-9,0,3,10,-38,-24,-9,-11,0
1551476396823438,-4,-12,-15,-35,-8,-10,-18,7,0,7,46,32,-3,3,5,-11,-4,-17,-71,-77,-2,-5,-3,-7,0,-1,1,15,-98,-14,2,2,-5,-4,4,50,-49,-7,-9,-8,-2,-5,-8,-28,22,7,6,10,-1,-2,-7,-6,18,2,1,-2,-2,2,1,4,20,0,-4,-19
1551476396876007,-7,1,62,-32,-8,1,-12,22,3,-13,-73,-40,38,10,7,-9,7,3,27,93,25,1,-7,6,-6,-3,1,21,20,-22,-19,-21,0,-8,11,0,-68,17,13,8,-1,-3,3,-3,22,8,3,2,-1,15,8,-13,-13,-11,-1,-10,-2,16,32,95,-20,-2,0,-8
1551476396921149,0,-3,23,-61,14,8,0,-2,-17,-32,-47,-65,-36,-18,-6,8,-4,-8,-17,14,-11,0,-2,-9,1,2,7,-12,22,6,3,17,0,2,3,8,35,6,1,9,-3,6,20,-34,7,5,4,-7,-4,-21,-40,59,0,-18,-12,-18,8,6,32,60,16,4,2,-6
1551476396965786,0,-4,-34,-4,-2,2,-2,3,1,-8,-11,-15,-38,4,20,31,6,19,6,15,-3,1,-1,-2,1,-4,23,24,10,5,7,10,-8,-13,-35,-6,-13,-31,-13,-28,-2,-8,-1,-9,7,-13,-2,8,1,-2,-5,15,36,9,0,-2,6,16,25,101,31,31,23,25
1551476408860850,21,5,-8,-20,-3,-48,-46,-25,1,3,2,15,17,-15,-69,-20,-8,-2,-3,-2,-22,10,77,14,-17,-3,6,9,-9,14,33,12,8,7,0,7,5,-15,-50,-14,-10,-15,-7,-8,0,-5,-25,-7,4,3,3,3,-2,9,21,1,9,7,-3,-3,-10,-2,-5,0
1551476408906098,34,1,1,8,4,-7,-8,-5,-41,-40,-7,-35,-12,-16,2,0,-14,48,11,25,8,1,-11,-6,9,-23,-3,19,12,9,4,-3,-8,33,0,-28,-24,-11,5,1,-48,85,4,-4,-4,-4,1,-2,-35,-85,-15,5,10,8,-3,-6,-19,8,7,19,9,1,6,-3
1551476408950630,-10,-21,-2,12,3,5,5,1,19,-13,-8,-3,-1,0,-6,1,3,8,-1,-11,2,6,-9,-8,6,4,0,-2,-11,-6,-4,-4,-9,-22,-5,-6,1,-35,-65,-10,5,-16,-6,9,12,-2,42,2,14,26,8,4,3,39,31,10,13,-5,3,0,-13,-6,3,3
1551476408988578,39,-1,3,-16,-9,3,3,3,-14,14,5,20,32,9,-9,0,5,15,3,-20,-33,-15,-7,-1,-10,11,-9,-34,-22,-12,10,5,-3,12,7,3,2,18,19,3,10,-15,-3,4,-5,-6,-4,-2,9,-23,1,31,16,2,-1,-6,-2,17,-5,-12,-3,1,-11,-5
1551476409033459,2,8,-9,-25,-5,-11,-4,-3,-25,-71,-5,0,-3,-1,-5,-3,17,13,2,-7,3,-7,-11,0,-19,-3,0,-16,-17,-1,6,-1,-18,-33,-31,-6,0,-2,15,0,4,-10,-7,-40,-23,-4,-5,0,2,1,1,-7,-4,-4,-5,-4,8,4,5,-2,-1,-4,11,3
1551476411006051,-9,3,22,-29,11,17,16,25,-19,-24,29,23,-6,-17,-12,-6,6,-108,-3,-126,-23,18,19,10,7,70,40,75,8,4,-1,16,40,111,13,-78,-45,-14,-3,-25,1,-55,42,50,17,39,20,-67,-91,29,122,6,13,-24,-3,102,43,-74,18,56,-2,54,48,-96
1551476411051685,-46,-10,74,127,15,10,-8,-68,-56,-22,-64,-81,-26,-40,-30,23,38,-76,-12,53,53,46,-2,94,-63,-122,-89,-82,20,-48,-46,-60,-97,-80,-33,-57,-55,-39,-68,17,55,55,21,73,-27,28,10,-128,-111,-102,-88,-5,-26,-72,-91,-100,116,-128,-115,-46,30,-14,1,28
1551476411110713,-71,68,10,-43,-13,-63,-78,-119,117,28,107,61,-17,66,72,12,127,119,9,1,-31,-5,26,93,-7,-125,94,84,64,31,13,-80,127,113,72,35,67,71,18,75,-128,-76,-30,23,35,-6,-35,-128,101,52,48,101,87,52,79,-32,-38,18,24,-128,-33,-8,-41,-13
1551476411148546,63,55,77,66,31,51,127,79,-19,82,-28,97,89,36,127,25,-99,-45,-108,-56,-2,13,-115,39,-71,126,87,-68,90,107,-121,-128,61,-36,46,-11,113,119,41,80,95,41,70,-2,53,-113,74,-40,-12,-94,72,82,-44,111,99,-22,-5,-114,-59,-39,-105,74,86,-62
1551476411200977,-68,3,-52,-39,-128,-59,-51,-32,-65,29,-1,-57,-128,-72,-40,-95,-74,-62,17,52,39,44,-34,20,41,46,-27,-33,-10,26,-44,80,97,42,-28,42,15,-13,-67,-128,25,-6,-37,50,20,-11,-4,29,-9,24,-27,-51,-5,-57,27,-43,-44,-40,6,-26,-15,-26,-12,72
1551476424265613,-22,10,11,52,9,-6,86,6,11,-20,-66,-92,-22,-22,25,-2,-14,17,-14,0,10,-19,-23,-2,9,29,18,-15,16,-21,-39,0,-10,6,12,-15,-14,-5,12,38,10,-13,-10,-1,-12,-22,1,47,-22,-25,18,85,14,-1,52,5,-1,-4,-14,23,4,0,35,-13
1551476424318221,-16,-2,-11,-25,-7,-6,15,-5,-9,3,3,-1,-4,-7,9,-22,-2,-4,-6,-11,-7,-2,63,-15,17,-5,0,-14,-2,-1,21,9,5,32,7,-26,-2,0,34,-2,-12,-2,8,11,0,3,-11,-16,2,-4,-5,-16,0,2,-23,9,-12,3,0,54,7,2,13,-3
1551476424370767,0,-22,-21,3,4,2,24,0,7,-22,-44,-59,-14,-2,-19,-7,6,11,10,1,4,1,-6,5,-8,8,3,2,2,2,5,5,-3,-16,9,-6,-4,-1,-8,-22,16,7,1,9,-2,6,3,14,-15,-14,7,-13,-4,0,-11,-8,-8,13,8,0,7,0,-17,-19
1551476424415903,14,8,0,-2,-4,0,-2,16,-2,3,5,7,4,1,-4,-1,2,-10,2,-20,-8,0,2,-5,-3,-11,0,4,-3,1,-5,-2,-14,2,-1,5,-2,1,-9,-10,5,-8,-2,17,2,1,-7,-7,2,9,3,-19,-2,-2,4,-3,-1,-63,-7,15,7,3,-3,2
1551476424468477,-9,17,7,9,1,0,-1,-1,3,5,6,-1,-3,0,-5,1,3,-3,-4,41,4,2,-2,0,-2,-1,-9,-13,-6,0,-4,3,-26,9,3,-6,-2,3,2,-13,13,38,3,-1,-8,-2,-7,16,-3,-12,-6,-17,-1,0,0,-3,-7,8,3,-15,1,1,-6,-13
1551476431225979,-21,-6,5,-4,25,0,-21,16,-7,-17,-2,6,-12,-13,-22,-11,3,-5,-2,6,6,-37,-37,11,1,-2,-2,-26,0,-10,3,-18,-1,5,-4,-5,-2,-3,-41,-31,-7,12,7,-4,-12,-17,14,2,-13,-10,5,36,9,-16,-45,-12,12,-3,7,35,16,-9,7,7
1551476431263676,-26,-2,-15,-89,-34,-11,4,-16,-4,9,2,-8,13,-54,-46,2,-6,1,-3,16,15,58,96,0,11,7,2,12,-8,38,52,14,10,6,5,34,17,-30,-33,-12,-8,-7,-6,3,1,-35,-95,-26,4,4,8,-7,1,74,42,-3,42,12,8,4,-14,38,86,0
1551476431315754,-2,-1,-13,4,6,18,44,59,3,-1,-4,-5,-4,12,0,1,-4,-10,-7,24,9,-61,-42,-22,5,13,5,-5,-9,17,-7,-9,-3,-4,-1,-25,-19,-44,-90,-31,-1,-10,-4,0,-10,-69,-27,-8,7,2,6,4,19,3,38,7,-12,-4,-6,1,3,21,7,6
1551476431360890,-4,-6,4,29,20,-7,-52,-16,-10,-5,-13,-26,-34,7,56,0,-3,11,8,-7,3,23,13,-12,18,-8,-8,-3,-12,-54,-1,29,-13,-6,-7,-20,-12,53,0,-7,-4,-11,-5,12,17,-8,-72,-9,-4,1,2,4,-1,-74,-19,-10,1,17,14,15,19,72,118,8
1551476431406027,11,-10,-15,-2,-13,-6,15,26,-4,4,5,-3,0,37,32,20,-10,-10,-9,0,37,-2,4,-3,0,14,-3,11,-39,-28,-5,-1,-1,-2,5,-10,-22,-63,-58,-12,-2,-8,-11,-1,-13,-11,-23,-38,-3,-6,6,26,70,62,-48,8,-15,-15,-11,-36,-28,-50,7,-25
1551476438216107,-4,-20,5,123,-34,9,-71,-46,-10,-45,-4,45,56,78,-119,-7,14,-3,34,114,127,97,75,11,2,-4,-15,-2,-27,-66,94,22,32,18,7,3,81,120,73,47,21,15,2,-94,55,-39,30,21,-7,-12,-2,10,29,-128,-70,-50,-12,-5,-10,65,17,34,-93,-21
1551476438268682,-14,-13,-10,-69,-42,-107,6,-51,3,-9,-10,-91,-87,108,-93,-24,-6,-2,5,-31,-19,33,93,33,17,6,7,23,37,119,46,68,-4,1,-4,-25,-7,112,-97,-22,3,-1,-12,10,-110,-128,17,-60,4,-6,-67,-50,33,-79,-63,-16,-5,0,23,95,-11,-128,-16,-94
1551476438320760,11,13,51,-20,45,39,-12,44,6,-17,-68,-55,20,34,50,10,-7,-18,24,-65,-58,20,30,28,2,-2,-48,-128,-35,34,58,-7,8,9,2,42,52,-46,-75,-46,-11,21,72,122,-10,50,36,28,17,4,-5,81,11,-12,39,20,-9,-6,-33,41,-68,-23,-49,-4
1551476438373335,-46,-7,-5,-31,-26,-18,12,64,-63,-81,5,80,34,17,-21,-76,33,18,48,-88,-61,-38,-21,-62,-1,8,27,18,77,37,12,4,-18,-14,-15,19,-14,2,-15,-34,-5,-6,57,54,49,20,25,10,12,2,24,-100,-62,-38,-39,-41,-7,10,39,-64,1,13,-7,0
1551476438418470,-20,-24,-28,14,4,29,53,-8,38,37,-15,26,7,5,-7,-17,-14,-80,7,118,39,14,25,41,51,-26,-11,7,-20,-14,-9,-79,8,50,25,56,-35,-11,10,-47,-13,-10,9,-19,-4,-12,5,-26,-9,-32,-40,-92,-63,-17,-22,17,-1,-14,34,58,21,-13,-10,6
1551476441125638,87,-22,-28,117,31,27,-100,5,10,-24,5,-7,21,29,-102,27,52,-53,16,-11,8,16,24,-55,26,-45,-71,-73,-13,-34,19,-27,1,29,11,38,54,18,85,29,-60,-9,27,78,23,23,127,-88,82,29,-15,-99,-19,-7,63,9,47,-84,-36,-10,-26,-50,0,-87
1551476441163343,-48,-112,37,-13,51,38,78,37,63,41,15,15,3,6,13,12,30,-12,26,-34,3,-14,-7,-26,-27,17,20,-20,-8,-25,-49,12,39,16,-24,-36,-10,-21,-47,-44,-24,-4,12,-16,0,-9,-17,27,-16,19,-25,12,16,-12,-31,19,-39,-25,7,7,-1,-28,-7,27
1551476441200533,-38,-29,-70,73,-14,-37,-18,-6,-27,98,89,20,17,-12,23,-47,82,69,96,84,41,13,32,68,12,-2,42,61,15,5,21,-91,-34,23,-18,-60,-5,4,-5,15,52,0,-13,43,-2,9,11,-2,27,80,-3,8,-17,-2,-15,5,-25,24,73,11,16,9,8,3
1551476441238728,39,4,-29,-89,-38,-2,14,-71,-34,-30,22,-7,-10,8,-21,83,-14,-13,4,-50,-7,6,11,-3,-40,16,-15,2,-10,2,-10,23,-62,-28,-47,-59,-14,6,3,4,15,14,44,-5,11,6,5,-5,79,58,-6,89,1,2,-16,61,-1,-7,9,12,7,14,10,4
1551476441290806,-39,-10,16,43,8,4,-8,-54,-19,-6,-21,-51,-21,-3,-13,52,30,-6,4,-37,3,-2,11,-4,-49,-32,-12,-20,2,2,-4,-26,-11,3,-18,-18,5,8,35,-18,21,50,-4,56,4,12,-33,40,-56,-4,11,38,6,9,-9,-63,21,27,-4,4,-6,2,-17,0
1551476446120852,-3,-5,-6,-69,-12,-1,-10,-5,-7,-5,7,48,37,26,19,12,5,-3,-1,6,-17,-18,-22,-11,3,8,2,-54,-31,-12,-3,2,-6,-13,-31,34,42,13,-2,16,-2,-4,-4,-6,-4,-14,0,-31,-7,-7,-5,78,24,-22,-42,-2,0,-7,-45,-31,71,31,30,38
1551476446188348,-9,7,37,-10,-11,1,-29,-13,19,-13,-40,-98,-31,23,49,25,-9,0,-13,-34,-7,2,-13,-38,-8,-2,26,51,37,-3,-16,-35,6,-5,20,-1,-16,-3,6,15,-10,3,21,-40,-47,-15,-18,-30,15,8,14,86,46,-8,20,38,0,-19,-83,-112,-6,-6,-9,4
1551476446248325,-9,-5,23,82,20,8,1,-22,0,-13,19,61,30,-9,-27,-21,0,-5,-40,-83,-8,11,21,21,2,0,-12,43,-11,-17,-9,18,-1,-5,-6,7,-12,13,15,16,-13,6,1,50,83,13,-11,-28,1,-5,-33,-92,-68,-36,-34,-33,2,18,78,-71,11,5,19,21
1551476446300899,4,-4,-19,45,32,-26,-14,-28,-5,-3,-30,44,74,4,6,-2,-10,-8,0,-47,-5,-5,0,-12,-1,-2,-10,13,-16,-13,-6,14,-3,4,23,33,-12,4,-7,-31,-8,-9,-24,13,44,16,-5,16,3,-6,3,-13,18,-10,26,24,-1,-1,-7,17,-33,10,10,-6
1551476446345540,0,3,24,26,-40,-21,9,29,-2,15,80,71,56,-20,-37,10,3,2,23,46,79,88,44,6,2,3,23,-98,-29,-24,-7,-45,1,4,-7,20,-1,2,22,36,1,-4,-20,25,49,18,13,-79,-6,-9,-7,-12,-63,-13,-12,22,2,2,26,64,-87,-22,-3,-25
1551476450598243,-11,-1,-3,17,-2,15,7,-15,-3,0,-4,18,-1,0,14,-14,-7,-2,-5,8,-3,1,-4,1,2,4,-5,-7,-4,-2,0,5,2,1,-1,-21,-8,-13,-11,11,8,-2,2,-24,-4,-5,-3,14,-7,-3,3,-24,-4,-4,5,7,-2,-2,7,-23,-4,1,-5,4
1551476450643551,2,0,5,-13,-4,-4,-3,6,6,-1,-2,-7,-4,3,-2,8,0,-1,-1,-3,-1,-4,-3,9,-2,-1,-5,-2,-4,4,-2,8,-3,0,-2,7,1,2,-3,3,9,2,-3,5,-4,4,6,-2,-1,2,-4,7,-1,-1,3,-4,-3,1,-2,6,0,-1,-3,-6
1551476450688528,-1,2,0,7,2,0,3,-5,0,-1,-1,5,1,5,4,-7,2,-2,-4,2,0,-3,-2,-6,-4,2,1,2,0,-2,-5,-10,0,-1,-2,0,-1,-4,-1,-8,-4,-1,-2,0,1,8,2,-5,1,0,-1,-2,1,2,-1,-1,1,0,1,-3,-2,0,-2,-3
1551476450733155,-2,0,0,-2,3,3,0,-4,-1,-2,-1,-4,-3,-1,1,-3,0,1,0,-3,-3,-2,-1,-1,-1,-3,-2,-2,-2,-2,1,0,4,-2,-1,-2,-4,-4,-1,-1,-12,0,0,2,-3,-2,-1,1,10,0,0,0,-2,-2,-2,-1,2,-1,0,1,2,-2,-1,-2
1551476450770849,-3,-2,-1,-1,-1,-4,1,-2,0,-4,0,-1,1,-1,-1,0,-4,-1,-2,-1,1,-6,-3,0,-4,-1,-2,-2,-1,3,-3,-1,-1,3,-1,0,1,3,0,1,0,1,0,-3,-3,-5,6,-2,-4,-1,-4,-3,-5,-4,-50,-7,1,-4,-3,-5,-7,0,13,-7
1551476457955904,30,24,-7,3,-40,17,27,38,4,-31,13,25,-32,-15,-1,-15,-13,-39,-22,33,3,17,-29,-68,-35,-48,-10,46,37,-61,-80,-21,-15,-7,37,48,64,108,126,25,24,27,12,-41,64,-22,-50,5,-15,6,11,5,-2,-32,-53,-1,-20,8,13,14,6,-61,-16,12
1551476458008480,-21,5,-3,59,20,-42,-43,-42,17,0,-3,-15,-32,12,3,-23,-15,5,11,95,-8,-50,-10,-6,-36,-20,-10,-71,10,6,-44,-59,23,40,93,104,20,38,5,54,75,2,-69,-111,46,81,127,113,-16,11,101,-6,-9,32,13,22,5,-33,-106,-54,-37,-48,-37,-35
1551476458068495,1,-37,-26,22,0,-36,-28,18,-11,3,76,36,-36,-15,2,-32,9,-4,-35,-60,18,-35,20,-55,5,2,-14,-52,-61,33,26,-4,52,28,83,37,-35,2,44,26,-8,-9,-21,-45,46,18,-8,-2,-9,-1,93,101,-10,6,-7,-8,-10,-21,103,49,18,23,-22,-34
1551476458135952,-16,-31,-76,-128,-110,-89,-48,32,-12,9,15,82,80,72,40,-14,13,3,-24,2,-18,1,21,2,-8,6,-18,6,-23,-6,17,23,-1,6,-72,-108,-16,-1,-7,2,-9,11,-40,-74,-40,-32,-30,-24,12,-6,-18,-63,-14,-17,18,46,-19,8,-28,-33,11,23,-20,-72
1551476458188532,12,71,-27,-16,11,37,110,62,97,-5,25,31,40,29,7,-30,10,-23,35,-12,16,40,25,-56,-9,10,-3,45,17,-49,-74,-112,-5,0,57,25,12,34,-6,-102,-19,18,49,84,-1,-20,-4,27,-2,-47,-123,-10,-3,3,-6,-10,25,-11,36,-16,-11,11,22,44
1551476470390618,-3,3,-29,23,21,-4,-15,-14,1,-3,-29,-15,-4,-7,-13,-3,6,3,-14,16,29,-16,-27,-1,-5,-31,-64,-24,7,19,22,53,-10,-10,-11,66,16,-19,-5,-9,-13,-5,19,28,61,15,-19,-24,8,15,23,-34,-9,-15,21,6,17,15,-8,-19,-29,-8,15,26
1551476470435759,5,7,6,-73,0,8,11,9,-18,-35,-32,83,14,3,10,3,7,20,4,-40,6,9,-21,-25,4,-14,11,-41,5,0,-8,-19,-13,-10,18,21,-38,10,-15,17,6,19,30,6,-19,-10,4,0,2,3,-18,-36,20,26,21,15,15,13,15,-8,-83,-36,-19,13
1551476470480890,-18,-11,26,109,37,2,9,-3,0,4,-20,-70,-28,-8,-20,-8,1,4,22,-15,-2,-11,-37,-40,-2,-4,-46,36,39,4,31,39,2,-6,6,23,65,-2,-13,-12,-9,-10,-19,42,60,-5,-26,-29,4,-8,-29,-63,-82,-28,-39,-32,-8,3,32,127,24,-5,-5,-17
1551476470533465,3,-5,-5,-4,91,-7,-13,25,-6,8,-3,-33,-58,-38,-30,-16,6,-3,-13,13,9,18,46,39,-18,-19,-42,27,-28,-1,9,-18,-7,-1,-23,-42,-61,-8,-8,6,2,-6,15,-22,23,16,-16,-16,-9,-1,22,-31,-4,-6,-27,-30,4,-1,9,42,31,-9,-22,-11
1551476470585550,-5,-2,-5,43,-1,-4,-9,7,-3,-9,-6,38,50,26,13,-6,-11,-5,31,123,-20,-17,-15,-18,9,0,-14,-109,-23,13,27,7,0,0,19,30,35,14,5,2,6,5,14,-6,-28,-11,21,27,-10,-16,1,1,42,5,-37,-63,16,8,43,26,0,14,88,110
1551476478190713,-11,-2,-10,4,-12,1,1,11,-2,-5,-8,-44,-43,-17,-19,-12,-3,4,24,-31,-24,10,15,27,5,-4,-4,30,60,18,-2,-36,-3,2,19,16,-25,-12,-7,-4,-1,-4,-10,-40,-22,-15,-21,-8,-9,5,37,24,27,35,-15,7,1,6,36,15,-1,2,3,-34
1551476478236354,4,-1,-10,-26,-3,-8,4,36,-3,-6,-23,-14,-17,4,1,-5,-1,-6,20,36,-16,-16,-4,29,1,8,3,62,3,-10,-3,-9,-9,-13,55,61,29,18,28,6,3,-8,-96,-117,-50,-51,-11,-4,6,17,16,50,34,58,30,30,-2,-10,-7,0,2,-34,-12,4
1551476478273550,7,14,5,-38,5,-16,-7,0,3,-5,17,-35,12,24,3,3,0,0,-1,10,-2,-34,-4,29,-14,-47,-74,-77,-17,12,-16,-22,-12,-5,24,40,-1,5,0,25,-13,-9,-31,-69,-76,-53,-18,11,4,-5,-23,3,57,46,7,-20,-1,18,-2,-32,-11,6,15,-13
1551476478326122,-11,-15,-23,-20,-12,-33,-24,-41,-1,7,14,15,12,48,-7,-29,1,1,5,26,33,31,-34,-29,3,5,13,7,15,23,45,28,11,5,-34,-22,3,17,-16,1,3,-5,12,8,7,13,30,9,5,6,-33,-18,-7,-22,-5,-10,13,15,49,-11,-9,-2,-14,2
1551476478363321,-13,-17,-57,-4,-13,2,8,-5,-4,-9,-22,-34,12,-4,-9,0,-5,-8,8,30,1,-11,-4,12,-1,4,23,7,-18,-32,-24,-4,6,18,2,14,-2,-9,-1,-14,-1,14,15,11,1,4,12,4,4,11,5,-15,-1,-2,12,24,2,3,-10,9,-16,-9,-3,-15
1551476483425995,-1,-2,-2,-3,-7,7,21,1,-4,-2,1,2,-38,-45,-14,-6,0,-2,1,-12,41,53,-8,-3,2,-3,-4,0,21,26,12,-1,4,1,-3,-3,5,0,2,2,0,0,-1,-3,8,4,7,0,1,-1,5,11,-21,-23,-9,0,-2,-1,1,-3,-7,-12,-10,-2
1551476483486006,-3,-3,-4,-3,-3,4,-5,0,-3,-1,1,7,0,-6,1,-2,-1,-1,-5,-6,-12,-11,-1,0,-3,-1,-2,4,11,3,-4,-2,-2,1,-1,-3,-14,-3,-2,-3,2,1,-5,-8,-6,-19,5,-6,-3,-6,-3,-5,-10,-19,-77,-22,2,0,2,-2,-4,-11,22,17
1551476483530646,-5,-2,1,29,10,-12,-16,1,-7,4,-3,-24,6,19,17,2,-15,0,-13,-25,-14,-35,-19,-17,-28,-14,-3,5,5,4,-36,-15,-5,4,-3,1,12,-3,10,-2,-10,-4,-10,1,-12,-10,-13,-9,-19,-21,12,15,8,6,14,3,23,17,0,13,11,0,1,-1
1551476483568344,18,74,2,-17,-28,-10,-4,-3,21,-41,3,52,9,-6,-13,-2,9,31,1,-65,20,16,-30,-76,-72,-48,-32,-78,-83,-29,9,8,49,-61,5,10,12,3,4,27,19,27,-13,41,29,9,14,17,61,-8,9,39,-21,-5,48,43,-1,34,-8,-53,22,4,-60,-47
1551476483613482,-23,-44,50,41,-20,-15,-38,-39,1,14,-19,-45,3,7,38,18,-15,12,6,17,-44,-13,7,-2,38,14,13,125,92,-2,-2,-1,-27,12,0,-103,-22,-8,-22,-18,4,9,-16,65,16,7,-13,-11,-14,4,-24,-8,-49,-45,14,-11,-31,-18,10,-15,30,-31,-117,-16
1551476494893507,25,-89,12,0,41,28,45,28,-3,25,0,-32,-17,-11,18,11,-107,59,97,-3,-15,-9,5,-67,110,-20,110,9,-3,2,78,127,-16,-69,-88,-30,-41,-25,-72,-88,-79,113,34,21,35,26,86,99,-75,83,7,-1,-4,-4,-38,-91,-19,-16,-34,-14,-1,2,-31,-71
1551476494945585,36,-44,-23,-8,0,-3,6,58,15,-52,-16,-16,-10,-5,-25,-35,46,18,-10,18,3,4,11,41,-9,-5,3,73,3,2,13,22,-1,24,15,-49,-4,3,37,12,21,8,-33,38,3,-3,-9,-47,27,14,-20,-56,-13,-8,-5,14,-30,16,0,3,-34,-44,3,12
1551476494998162,-37,26,29,40,33,39,4,-21,19,-17,26,-11,-19,-37,-32,-6,-6,3,20,4,37,-32,-3,9,27,-21,-8,-34,-17,-2,-13,-4,1,0,-18,25,2,11,-9,-1,-26,5,-7,-51,-17,49,-4,-24,1,-1,20,28,-5,48,-5,0,27,-5,4,4,-37,56,10,-2
1551476495050738,10,1,13,2,9,37,5,5,26,-1,0,-35,-8,2,0,-15,17,-4,-8,-43,-55,-59,2,-4,-2,3,9,3,-17,-34,-6,-15,-2,4,8,80,91,-19,-1,7,-7,-6,-14,-21,-57,-31,-8,3,-16,-3,-8,-45,-99,-65,3,-5,-5,-9,-10,-56,51,11,-64,3
1551476495103312,14,4,-5,-13,-94,-68,57,9,-13,0,10,59,54,92,5,8,0,3,0,7,12,-57,42,6,-5,-1,1,-5,-60,-63,-61,3,-1,-2,-6,-14,-58,42,27,14,-20,-4,-4,3,35,48,-7,-3,15,2,-5,-18,-22,-4,-3,-11,0,-2,-9,-32,-38,-21,12,4
1551476504725710,11,-1,10,9,-32,-11,0,-10,10,6,9,4,22,15,11,56,6,4,20,22,-13,-7,-4,9,0,-2,-21,-35,-19,-4,-13,0,-14,-4,6,-2,-2,-1,3,-5,-4,-8,-12,-25,-2,-11,-25,-47,4,1,14,32,15,26,40,45,0,4,9,-3,-7,-5,9,23
1551476504778285,3,0,-24,-31,5,-3,-1,-2,-9,0,38,103,13,-2,-5,10,1,0,-21,-63,-18,-2,-17,-22,-3,-4,0,5,-3,-1,-10,-23,-4,-6,-8,-22,10,0,-6,14,-4,-7,-6,3,-11,-6,3,-15,-8,4,15,21,10,2,6,0,4,-5,-9,1,-7,-4,-4,-16
1551476504808048,4,1,-6,-32,-8,8,11,9,-6,0,-2,10,-3,-4,5,7,6,5,1,-7,2,2,-17,-26,-7,-10,-19,-44,-11,1,-1,-15,-2,-4,-2,10,4,-6,-8,12,1,-4,-15,-19,-5,0,11,1,-6,0,0,-10,5,3,-8,-9,2,5,43,101,6,-3,-8,3
1551476504853564,-2,-1,-11,-72,-11,-9,-18,-35,-1,-1,-12,-11,-2,-1,2,18,-1,2,9,14,7,-7,-11,-21,-9,-1,-5,-7,-9,6,3,8,3,4,3,6,-7,-8,-6,-19,0,-3,-4,-18,-2,6,15,14,7,-3,13,21,8,4,2,-1,1,-4,-16,-30,3,-1,-2,2
1551476504898316,-7,6,3,12,-6,-4,-9,-11,0,-1,3,-21,-10,-1,-1,1,-9,-11,4,18,-3,-1,4,6,-4,-16,-29,-7,0,1,4,1,21,5,25,7,2,6,17,10,6,9,16,-13,1,1,-1,-7,11,9,19,12,8,5,-2,5,-17,-25,-65,-12,-14,-15,-19,-24
1551476512240604,-1,-2,-1,-2,-1,0,-3,-3,0,-1,-1,-3,-1,-3,-2,-1,-1,0,-1,-2,0,-3,-2,-1,1,-3,-2,1,-2,-1,-2,-2,0,-1,1,0,-3,-2,-3,-1,0,-1,-1,0,0,-3,-2,-1,0,-1,-1,-3,-2,-2,0,-2,-1,0,-1,-1,-1,-2,-1,1
1551476512285742,0,-2,-2,-2,0,-2,-1,0,-1,-3,0,-2,-2,0,2,-3,-3,-1,-1,0,0,-1,0,-2,-2,0,-1,-2,1,-2,2,-3,-2,-2,-2,-2,0,1,0,-3,-1,-2,-2,-1,-2,-1,-1,-2,-2,-1,-1,-1,0,-1,0,0,-1,-2,0,0,0,0,-1,1
1551476512315995,-1,0,1,0,-1,0,-1,-2,1,0,-1,-1,0,0,0,-2,-1,0,0,0,-1,0,-1,-1,-2,0,-1,0,-3,-1,-3,-1,-3,-1,-1,0,-2,-1,-3,-1,-2,0,-1,-1,-3,-1,-3,1,-2,-1,-2,0,-4,0,-1,-1,-1,-1,-2,0,1,1,0,-2
1551476512368078,-2,1,-4,0,-2,0,0,-1,0,-2,-1,-1,0,-1,-2,0,-2,-1,0,-2,-3,-3,-3,-1,-1,0,1,-2,0,-2,-2,-2,1,-2,-2,-1,-1,-3,1,0,2,-3,-1,-1,-1,-2,0,-1,-1,-3,-1,-1,0,-1,-1,-1,-1,-2,1,-2,-1,1,-1,1
1551476512413211,-1,-2,-1,-1,0,-1,1,2,0,-1,0,-3,-1,-1,0,3,1,-2,0,-2,-2,0,1,2,0,0,-4,-1,1,-2,-1,1,0,0,-1,-3,1,0,-2,0,-2,-1,-1,-1,0,1,-2,0,-2,-1,-2,1,-1,0,0,-1,-1,-1,-1,-1,-1,-1,-1,0
1551476525591037,1,-13,-16,-89,-47,-40,-52,-22,-9,-2,4,-5,17,5,-17,-13,-3,6,4,52,-3,-44,-49,2,-12,-7,-2,45,87,42,0,10,-4,10,9,15,-61,-26,-10,-2,16,-14,-22,-9,-2,20,-4,11,-49,2,-1,1,-51,1,-4,-11,35,-9,-2,-41,53,-14,-3,20
1551476525628230,-6,-10,7,33,39,-5,-60,-61,-3,-12,3,17,33,44,105,34,26,3,-4,-39,-101,-19,34,37,-31,-2,12,58,34,13,14,-1,-11,0,-11,59,3,14,-5,-7,13,4,-2,-17,25,-42,-74,-58,17,14,-7,-80,26,29,37,82,-11,24,36,-25,-50,-14,5,21
1551476525673368,18,-6,-14,-7,11,3,-10,-2,-14,-8,-3,37,-52,-9,-30,-27,10,10,37,16,37,9,-29,-12,-8,-21,-50,-15,-56,-20,-44,-59,9,3,19,-21,26,11,15,52,4,7,0,-35,-8,-13,-14,4,-4,-10,-2,32,16,-7,-36,-5,3,13,-4,-97,-25,-12,-38,-30
1551476525710566,-19,-11,28,88,49,5,3,48,-1,1,2,-12,15,3,45,63,5,-5,9,-24,6,1,-38,-21,-8,-6,-4,-17,-22,-11,5,5,-14,-6,-15,6,51,-29,-21,-49,2,4,18,-100,-57,-19,-29,-23,-11,-18,-3,-23,-21,1,9,5,3,-17,-38,39,-2,-12,4,6
1551476525755712,2,6,3,10,3,4,8,-37,-10,-13,-16,112,21,0,-5,31,0,-1,5,9,-35,-24,-25,-5,-16,-3,16,-35,-33,4,-63,-52,-7,-2,-27,33,-9,-3,41,-50,-7,5,8,-77,6,26,31,23,15,2,-4,-34,55,13,-14,-41,6,14,42,43,-38,-21,-33,-47
1551476538880379,3,1,-2,-11,-13,-5,-1,11,13,9,1,-10,-6,-14,-9,4,-15,8,1,30,4,-10,-32,-19,35,16,-19,-27,-2,7,5,2,-29,-19,0,12,9,1,5,-3,-4,22,-4,16,0,-3,-8,-11,-32,-37,-14,-22,-4,-2,5,-12,22,19,7,10,3,-2,-6,4
1551476538925575,-3,23,7,10,-3,-5,-5,-8,16,-1,-14,-21,-17,-3,9,12,80,-26,-14,-5,-3,-10,-7,4,-29,8,-16,8,6,4,2,5,18,11,-13,-22,-15,-6,-1,4,-19,-1,-3,7,0,2,-2,-4,-17,-4,-3,-1,0,1,0,-5,5,-3,21,13,2,-6,-6,11
1551476538985581,9,0,16,-3,1,2,1,-10,-16,-11,43,34,25,9,11,2,-13,-10,25,-18,-21,9,11,7,11,-7,37,8,-6,-5,-2,-4,-5,4,23,4,-39,-6,24,9,6,6,12,10,5,-53,-37,-4,10,-5,-18,0,20,30,-17,-9,3,8,-5,4,5,35,20,8
1551476539030668,4,-9,-37,11,28,27,49,9,4,-14,-45,-15,-23,-4,13,3,-2,-9,-40,-10,-11,-6,11,-4,-17,-17,-40,-24,-16,-78,-111,-24,-32,5,-26,-28,-33,-39,28,-17,23,10,-22,6,18,80,86,24,-31,5,-16,-1,15,71,-44,-55,25,7,-1,-6,21,29,74,55
1551476539075803,27,21,17,-24,-2,23,5,16,-1,-6,-3,-13,-23,-25,-55,-68,21,0,11,38,27,-19,62,106,4,-2,-17,-36,-27,-57,-52,-7,-20,-12,-2,-8,-27,-28,-48,6,-3,-14,3,6,-1,9,2,-10,-14,1,16,10,24,2,-44,-28,-1,15,16,64,17,68,36,-8
1551476542488283,1,4,51,70,8,-2,-4,-4,3,-1,-15,-30,-3,-4,0,-4,-4,-4,6,0,-1,2,-4,-4,3,-7,-11,2,4,-3,3,6,0,2,4,13,-1,3,3,-3,1,-4,-9,-4,-3,-6,-1,6,-1,-6,-6,-34,-17,-2,-7,-2,-4,1,6,36,3,2,0,-11
1551476542548804,-13,-6,-15,22,-2,-6,-4,-2,0,-1,-9,10,5,1,0,3,19,13,-9,-20,-1,2,4,1,1,-5,-10,-10,1,0,-3,-2,3,1,1,-35,-7,1,-2,2,-10,-10,-53,-36,-2,1,1,-1,-1,3,-5,-26,-6,-3,-7,-6,-16,4,1,0,0,1,1,-1
1551476542593437,15,10,-11,14,-1,0,-3,-1,-33,1,-38,-8,-2,0,-4,-22,17,-9,-28,-7,6,7,18,28,-3,-1,-20,-28,-10,-4,-3,0,5,9,-42,-7,11,-1,1,7,4,-5,-1,42,-8,-7,-19,-8,-2,1,8,4,-9,-3,-3,-3,3,-3,15,-17,-11,-8,-23,-61
1551476542645516,-4,-2,13,-2,-5,-5,18,55,-17,-7,16,-25,4,7,-36,-33,-43,18,-45,-53,-21,-14,-51,-4,73,-24,39,44,25,11,102,90,-31,-47,19,-16,0,-1,-11,-100,-2,35,60,16,11,3,94,112,24,106,51,88,10,-13,-43,29,-128,-90,-4,-78,-27,-17,-31,-76
1551476542690650,-109,-119,18,-25,18,13,-9,-94,-24,95,44,3,-8,-14,-57,-44,66,73,-56,2,4,12,54,102,-118,-81,46,29,12,-26,-62,-128,7,-72,38,-23,-46,-15,107,-30,-34,6,72,20,3,41,42,8,15,71,56,-29,13,11,75,97,-28,22,-8,-36,-22,-8,-55,-64
1551476548030588,46,0,-49,-64,-14,-2,-18,-34,13,64,11,33,-7,-4,17,0,-29,32,1,-1,6,11,9,10,-53,-65,-1,63,17,4,-10,-11,91,47,-26,-114,-12,-15,-8,-37,-82,-81,15,14,4,-5,-11,-10,55,-6,27,5,-8,-20,-10,-3,30,-20,-14,-31,5,14,1,-5
1551476548083192,-44,99,8,76,1,-1,-6,-2,-15,-62,-35,8,14,16,11,12,25,42,-1,10,-9,-1,-21,-5,-117,-101,-36,-20,-27,-23,-55,-81,13,-34,2,-80,18,-8,-30,-19,-69,-86,17,-27,-11,-13,-109,-110,-76,-90,17,-23,9,-3,62,-43,127,89,-61,77,75,44,116,127
1551476548135736,87,63,36,121,60,1,-47,31,-64,21,46,44,0,4,-65,-63,-65,-78,-32,-29,17,8,58,94,-24,37,-73,-122,-35,-6,-16,46,-94,-124,3,-32,4,14,-2,-43,104,127,83,-15,52,40,-8,-51,-52,79,5,-30,-35,-9,119,77,121,-101,-44,-47,-17,-17,-68,26
1551476548180375,14,43,38,24,29,25,92,75,-55,-2,40,-8,-13,-45,-19,-16,87,39,10,4,-40,11,42,70,91,11,-16,-46,21,20,-27,-43,28,-51,6,17,65,18,-103,-101,30,-47,-12,-61,-38,-19,-128,-128,-54,-74,-48,-29,16,40,-52,-57,-57,-4,-128,51,6,111,99,127
1551476548225522,-117,-25,5,65,-97,-101,-6,-117,27,-24,-60,-125,6,8,103,-20,-36,-128,-128,-128,-128,-128,-8,-83,-52,-109,-86,-72,-1,-94,44,52,-8,-81,44,26,76,-65,55,79,-78,-31,105,77,81,-96,-23,-22,-112,-83,32,-22,-39,-35,-17,-128,68,34,55,63,-25,-36,-10,-96
1551476558515527,-4,-5,13,-41,35,-3,-13,-22,-5,9,4,-36,-36,-9,-24,-40,7,-3,-14,-31,32,8,24,28,-1,-1,5,-46,-59,15,22,31,-10,-4,22,48,14,-6,-32,-32,1,4,0,-45,-42,-13,22,10,-4,8,28,97,60,15,-1,-15,-3,-8,-2,-26,-3,-5,-19,-9
1551476558568100,-3,4,15,42,61,28,24,-18,9,-5,-28,-12,-59,-10,21,60,0,1,19,34,-34,9,17,39,0,15,20,65,38,0,33,29,-8,-12,36,80,56,6,-2,-11,-1,-8,5,55,42,9,-5,-22,4,-6,-55,-71,-69,-20,-8,-16,-5,-10,-19,2,0,23,2,-14
1551476558642996,-8,-14,-37,-35,34,-10,-10,-8,1,-1,-16,41,-31,-17,-3,4,8,-10,-33,-44,-41,9,25,20,-5,-1,2,39,24,14,-11,-18,3,0,8,9,18,-4,-1,-13,-2,-7,-28,-24,4,-4,10,7,-6,5,-21,-13,-18,-7,-5,14,-5,4,6,-3,58,25,-2,-1
1551476558680692,6,5,-43,-84,-56,-6,1,20,-1,-8,-1,91,60,-3,0,-4,15,11,3,45,-21,-18,-11,-17,0,12,21,41,-11,4,8,13,-19,-1,-7,76,-21,-6,-5,-5,16,4,1,-112,-48,6,25,11,-2,-3,-12,-42,-6,-8,-9,-12,-8,-6,-5,10,-19,0,-6,-7
1551476558725341,-1,5,-13,-57,-19,7,4,5,-10,-1,-34,-64,-11,-10,-16,0,-13,-4,-22,-59,21,5,-10,-3,11,-6,7,11,-16,7,7,8,-2,7,-20,-60,2,-3,-12,7,12,8,11,-1,6,12,16,3,3,0,9,-14,-1,-10,6,1,-12,-11,16,12,-10,-6,-5,-14
1551476563180900,5,0,-3,17,19,-6,27,-10,1,4,4,27,20,4,44,-6,6,6,-5,-35,-32,-8,41,-8,-3,4,-3,-16,-12,-2,24,-5,-12,1,-2,-15,-27,-6,32,-3,17,-2,0,-15,-14,4,60,-4,-10,1,4,8,14,-2,65,-2,19,0,-1,-15,-32,-4,54,2
1551476563225633,-2,-4,-2,-13,-17,-9,39,-3,-3,2,3,-11,-2,1,14,-1,-2,8,4,2,-1,5,-5,2,0,-9,-2,-32,-68,-15,2,-2,-8,-5,-13,1,36,-10,-11,-2,-4,-6,-4,-7,-19,-20,-36,-6,-5,-1,-1,-18,-7,21,-9,-2,15,6,5,15,1,19,15,-3
1551476563270674,5,1,10,13,-2,2,-22,1,-17,0,-5,-35,-15,1,2,2,-5,-27,-4,-71,7,59,75,-1,8,12,5,-2,3,7,15,1,-6,-22,-5,-8,10,-19,-25,-2,-22,5,-9,-11,8,33,-5,-7,27,-9,3,26,-4,-22,-52,-2,-13,3,0,6,-6,14,10,4
1551476563323249,24,7,-4,-16,7,0,11,7,-20,16,-5,-11,-1,-11,-19,-2,9,0,-5,2,-5,-12,-35,-4,0,-16,-3,9,-3,6,-12,-6,-15,-8,6,25,-4,-1,-14,-1,2,-19,-11,7,1,-10,-21,0,3,-6,-5,5,-3,1,-9,-1,6,-5,-14,-12,-2,12,11,5
1551476563367892,2,13,-14,-1,-1,1,24,3,-3,-13,-14,7,-3,-3,-3,2,-15,-19,-18,-3,2,2,11,3,5,-1,-10,-12,-2,7,28,-3,0,5,-1,-9,-1,-18,-14,1,4,14,11,1,2,-10,-12,1,-13,-8,8,2,-2,-32,-29,-5,-1,-2,7,-13,-4,28,-15,-4
1551476571588095,2,0,7,33,21,2,-15,-3,6,7,13,62,-6,-7,15,9,5,1,-8,-2,67,27,16,0,5,4,-6,-17,9,7,5,11,3,2,3,-6,16,11,13,1,-11,-8,-4,41,-7,-9,-25,-8,4,0,5,-32,-84,-20,1,2,-7,-10,-6,-10,70,11,22,0
1551476571648116,-4,3,6,58,79,-2,-11,-29,3,4,12,8,81,19,6,4,1,4,10,-20,-78,-21,-8,3,-5,-8,-15,-11,-33,-10,-6,2,-6,-6,1,11,46,4,-5,-10,8,6,2,-65,-105,-12,4,1,-5,-6,-3,21,70,13,-6,-10,-1,3,-2,-9,12,-16,-3,-1
1551476571708129,-3,-1,-3,-15,17,9,-2,5,-2,0,-22,12,-32,-4,-5,2,0,-2,-7,16,17,-11,3,-5,-9,-1,0,-7,15,4,-15,-12,7,1,8,-9,44,0,-15,-13,10,2,29,0,-1,-2,5,29,-3,-2,3,-26,81,15,-3,-5,-7,0,19,23,-8,2,10,-5
1551476571783023,-11,-1,-5,54,73,16,-2,-14,0,-2,-9,-15,-5,20,3,-11,-3,-4,-13,18,43,0,2,6,0,4,-20,-30,-35,-20,-24,-8,-4,-3,-18,-15,-47,-16,-7,0,-2,5,25,84,-4,-17,-13,-6,7,3,2,-3,-44,2,27,28,6,4,-9,-5,-6,-1,1,8
1551476571828306,-2,4,2,-5,28,17,-2,1,2,3,2,40,-52,-15,0,-5,-2,-2,0,27,43,-8,-7,-1,-3,-11,-19,-55,-47,-8,-7,-14,-4,-9,-29,-9,-59,-25,-28,-10,5,-1,-15,0,-3,-6,17,34,-1,7,-9,58,12,-5,-3,-6,-11,-4,-5,-61,-64,-12,1,14
1551476575870558,-1,2,2,-1,-2,0,0,-1,0,-2,0,-2,-1,-1,-4,-1,-1,-5,-1,-2,-2,1,3,-1,-2,-1,0,-3,-1,-2,3,-5,-1,-1,1,-1,-2,-6,-14,-3,0,1,0,-2,1,3,1,-1,-1,0,-2,0,0,6,12,3,1,-2,-2,-1,-2,-9,-3,0
1551476575915801,0,-2,2,-1,0,-2,-5,-2,2,1,2,-1,0,1,1,-1,1,1,1,-3,1,4,-4,0,-1,1,1,-1,1,4,6,1,-1,-2,6,-2,-3,-1,-3,-1,-3,-2,8,-2,-1,0,-3,-1,-2,0,11,-2,-2,-8,-9,-2,-1,5,28,-2,-2,-1,-4,-2
1551476575975710,0,2,30,-1,0,-2,3,0,0,0,24,-1,0,0,-4,-1,0,-5,14,0,-1,4,6,2,-2,-7,-2,-1,-2,-2,-3,-3,-2,-4,-11,0,-1,-3,-8,-5,-3,-4,-17,0,-1,-5,-1,-1,-1,0,-19,1,0,-4,-3,0,-1,1,-20,1,1,0,1,-2
1551476576028288,-2,0,-20,-1,-3,-1,3,0,-2,-4,-17,-1,-2,-11,-17,-4,1,0,-14,0,-1,3,2,-1,2,1,-12,-2,0,4,7,1,0,0,-11,-3,0,4,8,2,1,2,-4,-1,-1,0,-2,2,-1,0,-1,-2,-2,4,0,-2,1,0,0,-2,-2,-4,2,-2
1551476576072929,0,-1,2,-2,-1,-4,-12,-2,0,12,1,-2,0,-1,-2,0,-2,1,4,0,-3,-10,-7,-1,-3,-1,3,0,-1,4,1,0,-1,-5,1,-2,0,1,1,-1,-1,-9,0,-1,-1,-4,-1,0,-1,-1,0,-2,1,-1,-4,-3,-1,-2,0,1,0,4,0,0
1551476581810653,-15,-39,7,14,31,0,-6,-62,16,31,-11,55,-1,-5,-11,-3,17,38,-65,-39,-14,3,27,43,6,71,-11,44,6,8,6,16,3,12,-13,-2,18,1,-10,-18,-15,-30,20,22,-11,-4,-5,2,26,-33,12,23,19,8,9,14,22,-18,-11,5,-26,11,6,23
1551476581878670,-90,-7,24,127,-24,5,-26,-48,-35,14,-84,127,18,-43,-78,-88,81,86,-47,-111,-99,-11,-51,12,107,-71,-22,100,32,39,64,49,127,91,127,14,3,-5,-50,116,86,23,-50,-23,28,46,88,42,121,102,-20,-103,-68,-65,-110,-119,-44,-17,28,62,-110,-117,-13,-20
1551476581938123,-85,13,62,55,-1,-76,-33,-128,-43,-60,127,-38,11,-42,-61,-105,4,-38,92,6,9,-13,110,34,40,100,-21,-64,5,5,-128,-96,90,9,65,33,97,82,127,78,107,48,-19,-16,36,39,-63,26,108,69,123,-42,-68,-63,-42,58,83,61,34,38,-49,-85,49,-76
1551476581998149,-23,-42,-128,112,20,12,-117,-84,61,91,-107,-34,-75,44,94,82,55,111,-128,-64,127,14,11,-78,-3,-93,-126,-128,69,-27,-18,-87,-81,-114,-106,-128,-115,-128,-48,25,-112,-128,-27,-100,-82,31,-109,121,5,-54,125,72,-83,127,31,-36,-97,28,127,127,-91,-127,-100,-118
1551476582065605,11,3,115,127,-50,-101,-118,-86,-40,52,127,109,96,-106,-128,-128,63,32,41,19,109,-128,-108,-91,84,26,-4,-39,114,36,-128,-128,-18,74,-30,-16,7,-8,-36,-93,-28,-7,52,64,53,-25,29,-95,-19,42,86,-2,23,-12,96,-58,-22,4,108,-41,-65,70,43,-57
1551476586693311,-2,-2,-1,-2,-3,-17,-7,9,-2,0,1,-3,-3,7,-8,10,1,0,-1,0,-2,5,12,9,2,1,1,0,0,8,3,4,0,-3,-3,-1,0,1,2,16,0,0,-1,2,0,-2,-6,19,-1,-2,-2,-4,1,3,-5,46,-1,-3,-3,0,-1,-1,-1,47
1551476586768180,0,3,2,-2,2,-3,0,10,-1,3,-3,0,-1,-8,-4,-1,-2,1,-3,1,-1,9,3,1,-3,-1,-1,0,1,-4,3,-2,-2,0,-1,0,1,-1,-4,-14,-2,0,0,-1,1,-5,4,-16,-1,-3,0,0,2,2,0,-23,-2,-2,-3,0,-1,-1,-5,-26
1551476586813305,0,-3,-4,-2,0,0,4,-11,-1,-2,-3,-3,-1,0,-3,-11,0,-1,1,-3,-2,-2,0,-13,-1,-2,0,-1,0,-4,-2,-16,0,-2,-3,1,1,-1,2,-5,1,-2,0,0,-2,2,0,-4,1,-2,1,1,0,-1,-1,-2,0,-3,-1,-2,0,-2,1,7
1551476586857945,1,-2,-2,-2,-2,0,4,5,1,-1,-1,-3,-2,-4,-2,4,-1,0,-2,-2,-2,-2,0,1,-1,0,2,-2,-1,1,2,-6,-2,0,3,-1,-2,0,1,-4,-1,0,1,0,-2,-2,-1,-3,-2,1,-1,-2,-3,-3,-4,4,-1,-1,-1,-2,-2,-1,-5,-4
1551476586910520,-1,0,-2,-2,0,-3,-1,-12,1,0,0,-1,-2,0,-3,-12,0,-2,-1,-2,-3,-3,2,0,-1,-2,-3,0,-2,0,2,1,1,-2,-1,-1,1,-2,-2,-12,0,0,-3,-1,0,0,-1,-9,0,-2,1,1,-2,-1,2,2,0,-2,0,-2,-1,-4,-1,10
1551476594935798,-3,7,4,4,0,-2,-2,-3,-6,7,-1,1,-3,-2,-1,-1,6,-4,-2,4,8,2,1,-3,-5,-9,1,-1,3,-2,0,1,-24,12,4,-4,2,-1,0,-1,14,-2,-5,-6,-1,-2,0,0,2,4,5,6,5,0,1,2,1,5,-4,5,2,-1,-1,-5
1551476595002923,-13,40,7,6,3,1,-5,-6,23,-21,-8,-1,-2,-1,-3,9,9,0,1,1,-1,-4,-3,0,-11,-5,-2,-5,1,-4,-3,-1,-3,-3,-8,-4,0,-2,-4,-2,7,9,5,-1,0,-2,-6,-13,-2,-5,1,-2,3,2,4,17,-1,0,-1,0,-1,-2,0,-5
1551476595040454,-1,-8,-1,-1,1,1,2,4,-11,4,-1,-2,-1,-2,-1,-2,-19,-42,-7,-7,-2,-1,-2,1,-9,17,2,-2,-1,1,1,2,3,-2,0,-1,-1,-1,-3,-9,-9,4,0,-2,-1,-1,0,-1,3,-5,-3,-2,-2,0,0,1,0,-2,-5,-2,-4,-1,1,-1
1551476595085589,1,-1,-2,-4,-2,-2,-2,0,-3,14,2,2,-4,-2,-1,-3,5,-18,-3,2,2,-2,-3,-2,-3,1,0,-1,2,-1,0,-3,3,-9,-2,0,1,1,1,10,0,20,0,1,-1,0,0,-4,12,-2,2,-1,-3,0,0,2,-3,-5,-2,2,-2,1,1,0
1551476595145653,1,11,-1,-1,1,-1,0,2,-3,10,0,0,0,-1,0,0,-1,-5,-1,0,-4,-2,-4,-7,3,-7,-2,3,-4,-3,2,4,3,11,1,0,0,-1,0,5,12,-4,-3,0,0,-1,2,5,1,0,-2,0,-2,-1,0,2,2,-1,-1,-1,-1,-2,-1,-1
1551476608202805,1,-15,13,-14,0,12,26,-13,14,-10,-1,12,21,5,17,27,21,6,-9,-86,-16,-4,10,9,-3,8,-14,-60,-15,3,4,7,11,1,13,39,10,0,-7,-8,-2,-10,-1,-17,-5,7,12,1,2,15,-5,33,17,12,10,-2,-9,-9,-1,41,8,-1,2,2
1551476608278192,-6,-5,-14,-39,3,9,7,-9,8,5,27,72,-3,-3,4,13,-13,-22,15,56,-18,-14,17,49,-6,-14,-18,13,20,9,7,22,50,5,4,-13,-1,5,20,70,-32,12,22,-14,-2,-4,-34,-78,-29,-86,-66,-66,-23,-16,4,91,111,-75,-30,51,26,-15,35,96
1551476608322998,108,13,8,-16,67,30,-7,66,79,109,37,22,48,59,-17,-35,20,-13,-66,-20,6,-4,-3,-75,-34,10,-18,21,12,-7,8,13,-128,-33,-15,44,7,-16,-21,-128,-70,-45,12,-35,6,-14,-44,-53,-7,26,36,-7,27,23,-20,10,29,19,73,-17,-4,12,-4,-10
1551476608360527,-15,5,64,-10,-32,-23,-17,-36,2,20,57,-12,-21,-11,16,41,-43,-32,-14,-19,-3,-8,-27,-59,16,7,-24,46,7,-4,-1,22,4,42,-15,26,-2,8,4,4,-17,15,-23,45,2,-21,-1,11,-42,5,-28,23,13,-22,-13,-26,30,21,-43,4,23,-22,9,40
1551476608405666,15,-4,-47,-4,32,3,9,-12,-16,-46,-73,-70,1,14,23,22,-26,-52,-60,-46,0,29,-22,-18,30,-10,-32,-39,-20,49,-6,10,-7,-10,-26,-37,-35,56,-3,-32,-22,2,-14,15,-32,36,6,11,-10,7,-8,-63,-53,56,-1,-8,17,10,3,-16,-46,62,0,-6
1551476630463360,98,0,33,-108,-25,46,52,-99,-10,-111,-25,92,102,78,-25,-80,-49,-54,-18,12,12,103,6,63,-113,-109,-128,-44,-36,110,-49,-1,127,50,-40,22,-75,41,29,6,-102,36,54,27,-89,-55,91,54,-33,76,127,62,-128,31,48,69,-32,73,115,9,-113,-5,-40,-3
1551476630507998,-62,96,127,38,31,-27,-88,40,23,-5,85,-11,82,-41,-106,-6,95,51,87,35,57,-128,-59,-62,27,2,55,70,105,-126,-32,-126,100,127,80,114,105,-72,124,96,-6,-29,-3,19,59,-103,-14,-78,-7,-45,-15,17,-13,-61,3,63,-9,-10,-23,-5,31,-39,-19,43
1551476630568018,4,0,-28,14,35,-7,2,46,44,-4,-20,-120,-7,-10,24,-18,-73,-5,-4,-49,18,-47,-17,-112,-19,19,-10,-5,31,26,11,-67,-25,-12,-2,-10,-7,-3,16,13,-50,-20,-10,-51,-18,18,-9,4,-17,58,72,20,-15,6,-11,-95,-29,-48,-43,6,-41,16,-50,-127
1551476630620591,21,18,-4,23,10,35,7,13,28,21,15,65,-10,20,4,69,7,-1,44,17,-11,17,-12,-96,30,-52,-36,55,43,25,46,63,51,79,34,12,23,15,19,58,-21,-30,-46,-35,-25,2,-18,-105,19,62,21,-7,-3,3,31,98,20,-5,1,4,-26,-17,-23,-16
1551476630665727,-12,-25,-20,-13,-12,-17,-8,-2,4,-10,-16,-37,-18,-20,-10,-1,-5,-32,12,1,6,6,0,-28,6,7,-20,12,-28,-20,-13,-7,-19,-31,-31,23,22,0,-12,-103,1,17,20,-10,-11,25,23,127,-15,-18,28,11,0,3,-5,-48,5,16,-29,14,-10,4,12,24
1551476633830700,-77,38,29,23,22,-57,1,-128,-54,89,-43,81,36,-48,-78,-110,-73,-13,59,26,5,-19,18,-108,21,-93,18,-71,-13,-20,71,94,-18,-128,89,-99,-62,24,84,-32,16,-128,-57,9,-26,-55,-40,-5,2,113,63,24,98,74,-15,-20,-25,127,21,-6,34,58,0,-64
1551476633882779,-57,104,-106,-50,46,8,16,29,35,-84,12,13,-10,61,50,-43,-88,-128,-28,25,-85,-98,-124,-100,102,-128,53,66,-30,-35,-28,56,16,-128,21,72,9,4,60,-45,-52,-84,-45,-70,102,-73,-104,-71,1,-58,-19,-96,-17,-51,-20,12,-3,7,-4,-127,28,-23,-67,19
1551476633927918,21,4,-22,-128,-24,-35,5,70,-27,31,33,-90,-9,19,18,-1,29,39,27,13,9,26,10,47,-14,-21,-14,115,28,1,-6,-60,12,-21,39,59,36,-4,-25,-73,-48,15,12,-10,-34,-6,-38,-64,71,-2,32,83,15,14,81,43,-11,13,-19,-11,-114,-61,17,-22
1551476633980494,-31,-23,-55,-53,26,-36,-72,-10,8,6,-14,87,22,32,61,64,-31,-15,-45,26,54,77,-60,-22,1,-2,29,37,-26,21,5,52,3,4,-7,-52,66,33,15,33,10,12,9,27,1,-4,8,37,5,11,-5,42,-18,5,6,19,17,5,-2,33,-4,-43,-10,41
1551476634025627,7,0,-15,79,11,5,20,20,-21,-8,-11,-24,-41,-28,-21,-16,18,18,-4,-3,-44,2,13,3,4,0,-2,77,41,-12,1,9,2,25,0,-26,-82,-20,-2,-18,-12,-32,-9,-30,10,6,17,-29,-9,-23,-21,5,-23,4,14,-16,-3,-2,15,22,22,25,-25,-17
1551476640123183,4,2,11,35,27,2,2,13,-34,-10,-2,3,25,6,-28,-117,24,2,1,-7,1,-7,23,42,9,-1,-10,-3,-15,12,43,38,-28,12,-7,-70,-28,-6,-18,-58,38,18,16,97,-22,-32,-2,104,-17,-1,-15,-1,45,-6,-8,-38,2,1,2,-6,-1,-17,-32,-13
1551476640168090,2,0,-1,-24,-14,2,-10,-11,-23,-8,-5,34,-114,-16,-6,-50,8,-17,-3,-73,4,27,12,13,-3,-10,5,22,-32,7,3,-8,-2,-16,1,12,31,22,8,1,3,-7,-15,-84,-27,-37,-2,3,-8,-8,-15,-14,-53,-9,-10,-12,-4,-11,14,60,49,-6,-8,-27
1551476640220666,11,4,7,-17,-36,13,11,13,2,-5,5,-32,27,15,6,31,-7,3,-1,-18,-41,-24,-39,-11,2,9,5,-20,79,9,-55,4,9,4,6,85,49,103,48,39,11,0,3,14,-23,-57,13,36,-1,-2,9,34,24,-27,16,4,-6,-3,-4,-23,-45,-20,-18,-31
1551476640265307,-5,-5,-22,-78,-73,-51,-10,2,-26,-8,-4,-17,-13,72,-27,-104,2,-6,-9,58,127,41,-18,66,6,7,3,-31,-79,-34,3,57,-3,-29,7,103,63,-21,-11,-24,-7,3,-5,-76,-33,24,27,23,-6,-13,-7,-38,-95,-55,-27,-31,-1,-6,-6,-13,26,19,0,-23
1551476640295672,7,-1,28,127,127,66,20,31,-4,0,-21,-93,-49,-9,-56,-71,-3,9,7,14,18,-15,28,-12,-14,-10,-12,-20,-4,20,23,-29,-9,7,5,-57,15,-27,-5,-38,-4,-13,-8,74,10,-17,23,37,-9,-1,-15,-17,-35,-53,-9,-23,-6,0,-7,37,-17,-63,-51,-51
1551476645410312,15,4,-1,-10,-70,-13,-15,54,-15,-6,-4,24,-65,-43,2,-12,-7,-2,-4,-43,25,28,-18,13,3,-17,10,-68,29,-2,-30,7,-5,-42,-1,-89,-91,-56,33,-59,38,-110,44,-100,-32,-38,39,11,-38,-128,-36,-119,-99,-80,21,-72,58,-111,-46,-90,-58,0,39,-34
1551476645455448,4,91,-35,-34,-2,20,2,14,-46,-14,-56,74,23,35,-24,-22,0,-35,5,106,32,57,-8,33,-22,1,27,117,17,52,-14,1,24,-5,28,81,9,19,3,-8,31,80,38,83,62,29,-9,7,-5,51,8,39,-9,-4,4,2,-18,60,-7,41,7,2,-7,-5
1551476645493143,2,0,-9,23,25,14,-6,-2,-5,10,-8,47,7,0,-5,-11,-7,-29,-6,37,4,11,5,-11,-11,5,-10,17,-8,-13,-14,-35,12,39,-6,-23,-13,-10,-17,7,-1,32,3,-8,14,25,25,42,-13,4,1,22,-5,-10,-7,-22,1,-7,-8,-27,-10,6,19,8
1551476645537784,11,-4,-2,-22,6,-21,5,18,-23,-28,-9,-30,-23,3,1,-13,-1,-47,2,28,65,10,1,7,1,-24,-4,0,-14,-3,-13,-4,5,-25,-1,2,22,3,8,3,-5,-13,2,10,59,10,-4,-37,-3,-21,-7,-16,-10,-1,1,-22,-4,1,3,-9,3,-11,-7,-24
1551476645575481,2,16,-5,-43,-51,-49,-18,-23,-3,18,2,1,55,23,15,14,-8,-6,-4,-6,-3,-6,-8,-35,7,16,6,11,37,50,10,21,-9,7,-1,-16,10,25,-1,1,-3,8,-7,-15,-43,-42,-13,-45,11,10,-5,-49,-33,-51,-6,-44,-4,2,2,67,17,-22,0,-17
1551476646303113,35,125,32,81,-77,-63,3,9,89,70,118,55,47,-13,-83,-128,-128,-106,-83,-128,-43,-51,-81,-128,65,66,66,-66,-52,-14,31,-51,-22,-15,-8,-32,43,27,14,31,-31,-15,-37,-60,-15,13,-1,-38,-83,26,-118,-12,46,49,7,-128,-43,-101,-128,93,-5,26,26,-20
1551476646348250,-102,-34,-112,58,-29,-27,5,18,-110,-124,-128,-62,-2,-74,-80,108,-128,-112,53,-121,-92,-122,-116,90,-120,-128,57,-128,-96,-7,101,-49,28,-116,127,87,-21,98,80,-96,61,-37,127,-87,-128,109,-64,79,86,127,125,18,35,98,-128,-41,92,42,110,101,79,127,10,32
1551476646415703,47,-68,121,107,103,86,59,76,61,-53,40,127,82,-81,72,110,30,99,-128,-68,36,-110,27,74,11,127,-57,-20,12,-95,58,-42,9,71,51,-7,4,-40,-3,115,3,119,92,89,5,82,37,-8,-2,115,49,-26,15,80,27,-45,6,90,40,55,33,127,-6,82
1551476646475243,5,-4,9,84,47,107,-11,-43,-2,-41,17,-35,49,87,27,-46,4,-75,-10,-33,54,79,7,-68,29,-76,10,-93,3,98,-10,-54,42,-125,-26,-74,6,111,1,-50,36,-128,-40,-65,-2,108,11,-27,5,-48,-22,51,1,102,-2,13,-2,-52,-6,39,-11,66,5,-7
1551476646527801,-11,-60,26,48,-3,-19,0,127,42,39,-4,-67,-5,-95,-1,83,12,-3,-13,-81,-14,-128,-7,94,-4,-7,16,-54,-29,-121,3,127,-3,-6,17,82,21,-78,21,106,15,11,8,-6,10,-111,25,104,-16,6,13,78,-29,-128,24,76,23,45,11,2,-4,-128,43,-21
1551476652467894,4,-4,-8,-38,-3,-4,-7,-1,8,6,-4,-26,5,0,-10,1,-11,-2,-1,-11,35,-1,-3,-4,-15,1,-7,-30,-72,-18,-6,-23,3,-8,-10,-92,-48,-17,-1,21,-1,-16,-4,-16,-8,-14,-11,-24,29,-1,7,3,10,20,37,77,-1,-8,14,18,11,10,16,10
1551476652528408,-5,2,19,94,10,-5,-8,-23,3,5,-2,45,33,17,18,6,5,13,28,105,30,24,15,-10,7,76,-16,-36,10,10,10,6,-7,-74,-14,-38,-15,5,4,-17,12,-34,4,50,31,14,3,10,-14,-36,-7,122,88,-10,-25,-27,8,-24,16,-12,-78,11,26,26
1551476652580487,-8,9,-13,7,-84,-31,-8,-7,-10,105,-26,-105,-17,-35,-17,-14,-15,-17,-14,6,8,-2,-9,-44,33,-41,-7,17,-14,18,-2,8,-19,17,-24,-77,-27,-10,-10,-108,-78,-25,-61,38,-9,-43,-39,-58,92,30,95,32,25,46,27,67,12,-19,-49,-81,2,-33,0,41
1551476652633068,-9,48,-13,15,-3,-49,-28,-56,16,-92,-47,-47,61,-25,32,77,-85,-122,-67,35,-27,-32,-50,-84,61,127,127,71,-30,-15,-25,104,111,-25,-20,-90,28,-39,-30,24,-107,9,-20,51,38,58,-10,-38,-25,-109,-90,-62,-65,-75,-48,-45,89,96,-29,-113,-27,20,-12,4
1551476652700527,-72,7,55,9,0,13,15,33,-28,-71,73,-100,-78,4,2,-106,76,36,127,127,30,63,40,66,3,3,19,85,19,-40,-56,-57,23,50,10,-11,-21,53,57,28,38,12,5,-27,-73,-11,-10,6,38,38,-24,-118,-78,-54,-21,19,-5,-6,-74,-122,-33,-101,-19,-11
1551476657995812,7,3,-7,-3,-20,-22,20,20,5,-4,-4,14,1,27,2,7,-1,-6,0,23,41,52,4,7,-12,-5,-13,34,6,-52,-16,-19,-9,0,-7,8,12,-15,-35,-31,5,6,-9,-101,-70,-16,12,12,-9,-2,6,81,42,33,-19,-3,-19,-1,2,5,33,-28,-2,-36
1551476658062772,10,10,4,35,34,17,11,18,-1,-14,-4,-39,-40,16,12,15,10,-2,-5,-40,-47,-31,-6,30,1,3,3,31,24,-19,-25,8,-3,-7,0,-58,-16,-13,-11,-2,-2,-6,-13,60,-41,-10,12,-2,-4,4,26,-11,25,23,4,0,9,12,-4,39,18,4,6,9
1551476658123285,2,-28,-38,4,-12,-17,-1,28,-8,-1,4,0,30,22,-9,-2,8,20,24,79,-39,-9,-9,-2,11,17,22,80,41,28,9,6,-7,-2,5,-6,5,0,-7,-21,-4,-13,-14,-7,-4,5,7,1,-12,-15,-7,7,-8,-18,-7,-12,0,-4,5,10,13,15,-4,-4
1551476658160484,-22,0,3,5,-37,-16,-8,-35,-16,-5,11,18,35,3,-9,-49,21,4,7,-60,-10,-15,-6,65,-2,-3,-16,17,7,6,-1,1,1,1,-1,2,23,11,6,24,-4,6,13,-23,0,12,1,-10,-9,-5,-6,18,13,-16,-4,-23,-1,-9,-14,-19,-7,-8,-1,3
1551476658213063,-8,0,-4,-26,1,7,5,-16,7,-8,-6,-17,-10,-14,-8,8,-5,-8,-3,-6,10,9,0,-5,1,4,10,45,7,2,-2,-20,2,4,-1,-69,-7,0,2,-4,8,-7,-11,-14,-4,3,4,20,5,-5,-6,-16,13,4,0,12,-11,-7,2,7,46,-5,-18,-14
1551476660080500,34,4,-47,-80,-11,-8,3,-74,-111,-54,85,-45,-26,-1,-5,-65,60,43,99,42,41,64,49,118,79,127,53,113,27,-5,3,-89,113,56,-52,-87,-33,-34,13,58,-108,-15,33,-24,51,21,48,85,1,-128,-128,-128,-61,-89,-84,-118,80,-90,-48,45,14,-48,22,127
1551476660140514,-119,-90,-34,12,-36,-21,-13,-128,127,80,62,-18,100,24,-25,11,2,-128,-101,14,-70,-23,-18,-42,-85,114,-12,81,44,-7,3,-51,36,94,73,-20,30,-4,31,13,-63,-6,-86,86,86,52,51,-24,80,73,69,105,119,49,46,-31,-110,-3,-6,17,38,-5,-24,-114
1551476660170771,-44,24,98,85,-40,-25,-33,-93,32,79,-31,-74,-77,23,-103,-33,45,-79,107,8,-41,106,-14,42,126,6,6,-43,-106,89,-97,-35,-43,48,70,10,-68,13,-97,-25,113,7,-26,-75,-38,121,-24,32,-128,-53,-40,7,26,-97,73,-94,37,-6,41,87,55,-128,-49,39
1551476660215412,-59,44,-16,-42,-20,-128,-67,102,53,52,-60,-69,-56,-117,34,-10,-28,-36,-29,23,69,-36,104,83,-128,-76,-3,4,26,-33,127,-38,77,37,-23,-46,3,-41,127,39,-53,36,-4,-15,12,-20,110,-18,-18,43,-13,-64,17,30,127,28,-16,19,27,-72,-64,-1,100,18
1551476660268026,-41,1,-41,-76,-57,-31,-14,-102,-33,28,-63,7,-33,15,1,-16,15,-121,-24,63,22,58,-51,52,-69,-68,55,38,-20,17,-83,-93,-23,-2,-11,32,0,-14,-95,-94,83,-73,29,43,2,4,-90,7,6,16,7,-15,-6,2,-107,-1,-54,9,59,78,30,-1,-66,4
1551476666920337,30,45,15,-23,-32,-35,-15,8,25,-38,52,103,29,33,39,63,7,3,-60,-97,-22,-1,20,17,0,4,-4,13,18,21,8,2,0,2,-25,-29,3,9,19,-47,7,12,19,14,5,-16,-29,47,-4,3,31,13,-20,-14,-3,-7,1,-33,-17,34,14,12,4,3
1551476666965475,-6,-28,-16,28,6,22,22,11,-6,11,-7,88,-4,0,-10,-31,-16,-3,7,-12,0,-9,-24,-33,-43,-26,-20,-55,-8,-15,-12,3,24,6,17,16,8,5,-3,8,-6,-78,-14,-77,-11,-6,3,-4,-4,3,-9,-77,-1,0,-6,5,9,12,12,-17,-5,-2,3,-17
1551476667018047,8,7,-12,-29,-1,1,3,16,1,-9,16,-21,-1,-4,8,23,-27,-38,-15,-36,2,-6,-4,-1,-11,-61,-29,-40,-16,-7,-16,-70,-3,-7,-17,-40,-3,1,1,26,-2,45,13,-5,21,12,-4,-23,-3,-6,1,-17,-11,-9,-10,-26,-20,-28,-11,-9,0,-3,-3,-10
1551476667063185,16,3,17,9,5,1,-1,-2,7,10,-9,-14,4,3,4,6,-4,-6,-3,-35,-9,-6,-1,-18,7,29,-4,-29,9,7,2,8,-8,1,9,-26,-11,-2,-2,4,-6,58,10,-26,0,-2,5,6,1,-2,-2,-7,4,0,-3,10,8,1,10,-2,2,3,3,7
1551476667115409,-14,-3,3,7,7,3,-7,-28,8,50,-6,-19,1,-4,0,20,-10,-12,-6,4,-4,-5,-4,-13,-1,-27,-9,10,9,10,-1,4,2,-33,-9,-27,-11,-17,-8,-29,59,44,8,19,2,1,9,12,-3,-22,-1,21,1,0,1,1,4,-1,11,27,0,0,3,-3
1551476668090398,-2,2,11,6,-4,6,10,-5,0,-4,-2,4,1,14,29,17,-5,-8,-2,-4,-13,12,4,3,1,0,-1,2,-8,-18,-3,-7,-6,3,15,-9,-5,-8,-16,-1,-6,-6,-19,-45,-5,-3,-1,-11,8,2,25,24,6,1,2,6,6,-4,8,-37,-2,15,6,5
1551476668150415,6,-5,-13,-13,18,6,1,4,-6,-2,6,-20,-9,-9,-8,-9,-8,-5,-16,-51,-15,-15,-11,-8,-12,-2,-7,29,1,-12,-12,-7,4,5,-6,-10,-6,-2,-3,-4,-9,-13,2,35,13,7,-1,-16,-1,4,10,81,-14,-7,-4,-24,4,40,13,-41,-29,6,4,13
1551476668202993,6,-14,5,76,27,14,10,23,2,12,-17,-73,-5,-2,-6,-18,-4,-27,-49,-55,-21,-19,-8,-15,2,17,13,35,-5,-4,0,-5,-9,-2,8,9,13,6,3,-10,9,-12,-7,-49,5,10,10,5,3,27,13,25,53,4,-1,2,-6,23,-4,31,-11,-8,-5,-8
1551476668248126,-7,-51,-13,-5,-8,-4,0,0,3,28,8,59,-38,-8,-3,5,13,38,12,45,51,-12,-4,32,-16,-120,-20,-22,34,-5,4,0,-19,66,41,57,-31,-13,-9,0,-34,-57,7,50,19,1,-11,-16,-22,48,-20,-8,-1,14,1,-7,-5,-27,16,29,19,7,2,-4
1551476668300627,-22,107,43,-12,16,15,7,-41,-94,-128,-93,-30,-21,-8,-17,-103,80,87,105,-59,-8,9,2,63,109,30,55,56,20,50,39,-16,-64,79,-111,-100,-66,-59,-15,-53,-109,-10,-40,51,18,-5,-19,-49,-57,-63,81,17,21,34,9,54,103,119,44,25,17,20,0,-83
1551476672072785,16,13,-2,-4,42,34,58,54,24,19,-8,8,-32,44,16,49,-36,5,-7,-29,68,15,-69,-49,-35,-7,3,66,57,-80,-80,-65,-19,-19,-3,25,-29,-19,-43,-19,-6,-16,11,40,2,42,18,1,-56,-19,-69,-88,-1,-26,-25,-86,37,53,53,18,3,-9,3,46
1551476672125869,30,28,-19,-33,-28,20,26,-4,9,19,8,-30,-9,-16,26,33,-19,-31,2,13,6,14,1,-14,-40,-20,-25,-5,-6,-14,-9,-128,-3,-25,10,8,16,34,87,81,-49,-2,-21,-75,-25,-12,-51,-44,-28,-71,14,24,14,-17,51,21,68,92,10,52,-9,33,34,14
1551476672177937,-22,-76,-5,-5,-3,27,23,-5,26,53,7,-10,-22,-16,-3,-5,35,14,14,-8,-8,-6,-32,20,-16,40,40,95,44,-1,-66,-32,-13,-44,-24,-55,-21,-25,-33,-9,-16,-40,-42,-27,-51,-30,-18,-9,60,44,42,35,18,27,18,3,5,10,18,41,3,-7,-55,-3
1551476672230580,-17,53,-14,-16,-19,-114,-104,-60,14,-37,10,11,24,88,93,67,-16,2,-7,-42,-6,76,37,-32,-16,-7,4,-5,-3,-62,-71,-50,-9,-22,-7,38,-34,107,126,56,5,-2,-10,-23,33,69,59,49,8,-16,-5,57,20,66,8,7,-17,36,-4,22,-4,43,-23,0
1551476672290526,-10,-4,-14,45,-13,-42,-44,-24,-13,20,-2,48,0,-46,-35,-32,-18,2,0,10,25,-28,-47,-47,3,-13,2,-40,-18,-23,79,36,-3,-38,-8,-55,14,-81,-128,-21,-29,14,-20,-96,28,112,127,-8,58,-15,21,-65,-70,-39,81,63,1,-1,10,-64,11,39,-25,-17
1551476681238863,-4,-3,1,26,18,22,-2,-1,0,-4,-1,-15,-26,-8,3,-5,0,4,4,-5,11,6,-3,3,-7,-4,-17,-91,4,-17,-8,-11,5,-2,-6,-69,-5,4,2,1,-2,-8,-4,41,30,3,-4,4,-9,-11,-3,11,-8,2,-4,-4,0,1,8,36,-8,-1,3,1
1551476681298089,7,5,-3,85,46,-1,10,2,-4,-3,5,4,-28,-18,-10,-6,-1,2,-1,-40,25,8,-2,1,-6,-1,2,1,-15,-8,-9,-8,0,0,3,5,25,24,5,-1,2,5,7,-20,-1,-24,-4,2,0,-4,-3,-11,-43,-10,-1,-5,0,0,0,-5,37,29,5,-3
1551476681350567,-9,-13,1,34,20,-26,-16,-2,5,12,4,18,62,2,5,-4,-4,-5,-10,-62,-8,-2,-8,-4,2,-1,-2,-23,-13,-13,7,-1,4,-3,-15,67,15,-10,7,2,10,26,5,29,-16,18,1,-2,5,51,13,37,-11,15,13,-3,20,-29,2,-6,-5,-13,-6,65
1551476681410475,1,-14,6,8,-2,14,4,17,-5,68,27,3,-20,1,3,-11,-66,-18,-3,35,-14,0,-12,-84,-110,-63,-17,-16,-9,-25,-19,-79,106,122,19,-29,-1,-19,8,106,66,108,87,81,40,36,21,-21,-116,-62,-41,-24,-39,-13,-36,-104,-41,-50,-12,14,8,10,4,-46
1551476681458587,69,-120,-77,-28,-18,-24,-9,10,110,76,73,-10,-25,-33,9,-67,4,-78,-89,-7,9,10,1,120,-100,-47,56,31,35,34,6,-124,1,-67,-4,3,21,25,-7,-30,-93,-39,-66,-37,3,-6,-22,-103,-26,-26,30,-26,-6,15,-2,7,-11,-35,13,-2,-17,7,-3,22
1551476703340113,-1,-2,-1,-4,-1,0,-1,-2,-3,0,-1,-1,-1,0,-1,0,-2,0,-1,0,0,-3,-1,-1,-1,-1,-1,-1,-2,-1,0,0,0,-3,0,-1,1,-1,-1,-2,-2,0,0,-2,0,-1,0,-2,-1,0,0,-2,-3,0,-1,-3,-1,0,-1,0,-1,-2,1,-2
1551476703392689,-2,0,-2,0,-2,1,1,0,0,0,-2,-1,-1,0,-2,-2,-2,-2,-2,-2,-2,0,-2,0,0,-1,0,0,0,-1,-2,-2,-2,0,0,5,3,1,0,-1,0,-1,-1,-6,-6,-3,-1,-1,0,1,-1,-1,-1,-1,-2,-1,-2,-1,0,-2,-3,-1,0,-1
1551476703437825,0,0,-2,0,-1,1,-2,1,1,0,0,2,-2,-1,0,0,0,-2,-2,2,-1,-1,1,-1,1,0,0,2,0,1,0,-1,0,0,0,5,-2,-4,-1,0,0,0,-1,3,0,0,-2,0,-1,0,-2,0,-3,-2,-2,-3,-1,-2,-1,-1,1,0,-2,-1
1551476703482966,-2,1,0,-4,0,-1,0,0,-1,-1,0,-4,0,0,-1,0,-2,-1,0,-2,0,0,-1,1,-2,-2,-1,-3,1,-3,1,2,-1,-3,-1,-4,0,-2,2,0,-3,-5,-3,-1,-1,-1,1,-1,-1,-3,-2,-1,0,-2,1,-3,-3,-4,-3,-1,0,0,-1,-4
1551476703535537,-1,-4,0,-2,-1,-1,0,-2,0,-3,0,-3,-1,1,-3,-2,1,-4,-3,-5,-2,0,-2,-1,0,-3,0,0,-2,0,-3,0,-2,-2,0,-10,-1,-4,-1,-2,0,0,-3,-7,-2,-3,1,-2,-2,0,-3,0,-1,-2,1,0,0,3,-2,1,0,-3,1,0
1551476713075597,-13,-63,67,66,28,34,32,-65,-60,-50,67,-11,-25,12,14,92,-128,-33,-121,29,-9,-37,-48,-108,-18,78,99,48,33,23,39,47,93,-5,-73,-17,55,23,15,-38,3,11,-41,31,30,16,20,22,68,69,24,-12,3,-35,-28,4,50,36,70,24,64,43,77,63
1551476713112801,-7,47,43,-40,-27,-34,18,-15,-86,75,67,88,-56,-15,-18,-128,-128,-29,-39,56,58,27,54,-108,71,78,-36,-76,-3,24,60,56,-63,-20,-35,-14,64,64,66,-37,49,-35,-57,15,35,95,-71,67,32,-41,-12,-85,24,57,-95,-26,-42,-57,-84,-32,-66,-51,-128,-128
1551476713158432,35,33,51,127,18,-53,-98,26,-78,12,24,26,-8,-42,15,4,-32,49,18,-16,-42,-41,16,64,55,76,11,56,61,16,85,29,-3,32,21,-12,-12,-26,48,-107,5,45,1,49,14,-6,88,76,24,-61,72,27,9,3,26,77,-40,-46,-15,95,5,5,-41,-68
1551476713210509,19,16,15,1,1,13,-38,57,-32,-3,8,10,-7,-4,-71,-75,33,-3,1,38,31,15,-24,48,-22,-38,-27,-73,-68,-10,-33,-21,14,28,7,24,-28,15,1,66,-42,-32,39,69,37,4,11,-55,-47,-20,5,-12,-35,-23,34,59,78,4,71,81,28,-15,14,64
1551476713248208,31,-25,8,-2,4,-25,16,25,-59,-59,-16,-18,16,-14,14,-29,-14,-9,9,-58,-25,-19,18,-18,30,4,2,-52,15,-16,11,-3,18,-14,-22,-25,-20,-20,8,-40,-11,-26,-10,61,12,7,1,-30,6,-3,-3,-39,-2,14,18,25,5,-42,6,50,-13,12,-1,-35
1551476720852876,29,20,1,2,-12,-5,24,124,-15,-3,5,-20,-4,-13,-23,-25,-12,-7,1,54,24,11,-26,-10,8,8,-5,-23,-34,-31,-28,4,-6,12,8,-3,3,-38,-19,-24,14,9,2,7,17,-46,-7,-1,-3,-16,-7,-19,-77,33,-11,-51,10,1,1,13,-81,16,38,26
1551476720905451,-2,0,-9,-10,-13,-12,-3,13,-26,16,-2,10,12,12,22,-9,39,-20,-1,-17,-40,-28,-10,36,-8,-3,-6,-11,-13,-14,-18,3,26,4,8,11,14,-13,9,13,11,-20,1,7,25,-11,-10,-22,-16,11,7,15,28,-11,-23,-47,16,10,7,2,22,-2,12,79
1551476720980346,-21,-18,-9,-5,-1,8,-2,-9,4,27,11,7,0,0,-3,-3,-6,-2,2,-2,-13,-7,-10,3,-2,-5,-17,-9,-5,-3,-7,-13,-3,-5,-2,8,22,2,18,9,2,-2,-6,-10,5,13,6,1,11,-1,0,2,8,-1,4,12,-3,-9,-7,1,7,5,0,-7
1551476721040459,-8,5,-1,7,6,8,-24,-24,16,18,18,4,-33,-15,25,15,2,-7,-7,14,4,4,4,17,7,4,-11,2,-1,12,19,4,-7,-10,2,9,-2,-7,-7,0,4,10,5,9,7,-5,-2,-7,-2,3,4,-11,-8,-7,-22,-1,-1,-1,-3,5,28,22,6,-5
1551476721092938,0,0,-3,5,28,24,5,-1,-5,-6,-5,-10,1,0,-4,-15,-4,-5,-6,-8,1,-2,1,-4,3,11,-1,-9,-23,-33,-13,-8,-6,-6,4,-5,18,17,-8,-4,-9,-7,-6,2,-1,10,-15,-8,7,0,-6,-1,4,-14,-4,10,9,7,15,-2,-2,6,50,16
1551476722457935,1,-2,-8,83,70,-4,-10,-14,-9,-9,0,25,58,10,1,-5,13,8,-5,114,-11,-19,-20,-8,17,7,-2,-118,-28,37,8,6,-2,-7,-14,1,-20,-12,-2,8,-14,-7,-4,65,40,11,2,-17,-8,-12,-15,-128,-13,16,20,-9,10,8,-4,34,3,-20,-17,4
1551476722503068,13,-3,-2,5,-8,-1,-2,-3,1,2,27,24,38,12,6,-1,-19,-7,23,61,2,1,-2,-4,-1,-8,-11,-108,-35,-4,-2,-37,-19,-5,15,51,20,-15,-10,-1,44,23,-8,-115,-21,18,3,16,-5,-7,3,-16,-48,-12,7,12,-14,-7,-13,26,-22,-1,-13,-4
1551476722540284,-13,-1,13,-94,14,11,3,-7,3,23,-15,-55,-93,-21,-14,-54,33,-48,-40,-91,40,12,9,37,-44,-27,12,-1,-18,1,4,-58,40,-2,6,73,67,66,8,62,7,-3,-23,-70,-72,-8,-5,31,-10,22,9,-12,0,-8,-9,-39,-2,1,-3,56,37,-16,3,-12
1551476722585404,-8,-16,-16,16,63,22,-1,-37,-15,-13,3,102,-82,-59,-14,-31,6,13,-13,-19,-2,-21,-7,32,-11,-10,-12,-91,38,26,2,2,2,11,-7,7,4,-10,-7,-10,1,-1,15,30,10,13,11,6,-7,2,2,-40,-34,-2,-11,-22,12,8,-5,103,14,-31,-4,16
1551476722630614,-5,6,21,31,41,-17,-15,-27,7,-4,-21,-109,-29,-29,-19,11,-14,-5,2,42,20,-13,14,-14,-7,4,7,-49,-6,-6,-9,18,16,4,-2,-29,-14,81,67,14,-18,-16,-5,-16,15,9,30,16,-2,7,-2,4,-39,13,-6,0,9,9,11,-32,-22,5,-6,1
1551476741365446,-2,-1,-2,-6,-4,-3,0,-5,0,-2,2,-2,1,-2,0,4,-3,1,0,-1,-1,0,-1,3,-2,-3,2,1,1,-1,0,10,-1,-6,-2,-5,0,-2,-1,-10,-1,4,-1,-8,-4,-1,-2,2,-2,-1,-1,3,4,-1,-1,11,0,-4,3,-3,-5,0,-1,11
1551476741432903,1,-6,-2,1,0,-2,-3,11,1,-3,-1,-3,-6,-2,-1,7,-2,-4,0,-3,0,1,-2,0,-2,7,0,-4,-3,-3,-1,1,5,0,0,-2,-2,-4,-2,-2,7,11,-1,-2,-1,0,0,1,-1,-18,-6,-2,-2,-1,0,3,3,2,-5,-1,1,-1,1,-1
1551476741492933,4,17,4,-1,-5,-2,-1,0,-1,-16,-5,-2,-4,-2,-1,0,1,-1,-2,0,-2,-1,-2,-2,-3,-2,1,-5,-3,0,-2,0,-5,-1,-2,-1,-1,1,-1,-14,-28,-7,-4,-7,-4,-6,-11,-39,47,18,6,6,5,7,13,69,3,-12,-4,2,0,0,-2,0
1551476741522711,3,2,1,3,1,-1,1,8,-7,2,0,0,1,3,2,-6,-2,-2,0,-1,0,0,-1,3,3,6,0,0,-3,1,1,8,-8,-3,-5,-2,-1,0,-4,-7,0,-4,-2,-1,0,1,0,6,-8,0,0,-3,-1,-4,-4,-7,6,1,1,-1,2,-1,-1,10
1551476741575251,5,-6,-1,-4,-2,-3,-5,-5,-15,5,7,3,5,-2,-1,-5,3,-1,-5,-5,-4,0,0,4,7,6,0,-2,-1,-1,-1,6,-1,0,-1,1,-3,-2,-4,2,3,2,2,1,-2,-1,1,5,-8,2,0,-1,1,-3,-3,-12,0,-3,-5,-1,7,-1,-1,0
1551476751610318,-23,-7,11,7,-45,17,16,59,58,1,3,34,-20,1,15,57,-53,22,-13,-3,-15,-4,1,-17,-59,-13,28,7,0,-13,-20,-30,-19,18,11,16,6,-3,-20,-24,83,14,2,-24,-3,1,-1,10,6,-4,-7,6,3,-3,11,23,-35,8,-9,-25,-10,-20,-3,-27
1551476751662895,3,-6,-9,-30,-20,-20,-7,-2,-1,-5,-9,17,-1,-17,-7,-16,-19,4,12,-17,-17,-15,-4,-19,1,-12,-41,-90,-4,0,6,0,11,10,18,9,-9,-14,5,25,-30,-65,-29,55,15,-5,-6,-32,4,-27,-24,-31,-10,2,8,15,-7,-54,20,39,-7,-8,4,30
1551476751708134,19,-10,-8,-15,-11,-3,-5,-23,-7,32,26,11,-14,2,5,-11,8,3,-6,-34,5,6,6,16,13,12,8,-9,-8,-2,3,-2,5,-9,-29,-89,-11,-3,-2,22,-32,11,7,9,3,3,-2,-58,81,0,-3,33,16,12,16,78,8,32,-3,-27,20,9,0,-2
1551476751768047,5,0,1,41,9,-6,-6,8,-11,16,-3,-18,2,-13,-8,-36,-33,-16,-15,-2,6,-8,-2,-8,-17,2,2,38,6,-9,-8,-1,30,1,-5,5,9,2,3,23,-4,29,2,50,2,-2,-4,-19,19,-22,-22,22,-5,2,-5,1,20,24,12,10,7,14,3,33
1551476751812686,-31,15,7,-1,9,11,-2,-38,24,7,-13,5,13,2,-7,8,-86,18,2,-32,3,12,-1,2,-15,-7,9,20,-1,-7,-11,-11,-16,-7,10,-4,-12,-8,-5,0,8,0,-4,21,-2,-4,-3,-28,51,17,30,17,2,-8,10,56,3,-18,1,-22,-12,-5,7,28
1551476756440371,31,-23,29,51,-4,1,8,81,-11,-78,-3,29,-9,-13,-12,-9,-13,20,-47,-82,-9,5,0,-31,7,-9,-9,-7,66,5,-3,20,15,-112,-7,-55,-25,40,34,-10,38,70,-67,-99,-73,-30,-12,37,27,-91,25,-64,4,-7,-35,-128,-30,74,87,68,47,33,83,73
1551476756492941,29,50,-4,44,11,-13,-53,-109,85,48,7,43,70,9,10,97,91,-35,10,57,-1,-32,-22,-104,0,58,57,54,-10,-42,19,69,85,-64,-20,-109,-9,29,46,107,-128,-96,-64,-92,-35,-9,-60,-128,85,69,-54,-39,-15,-14,-18,-51,-10,-59,27,-21,61,14,-8,-54
1551476756522827,35,24,-92,57,6,-12,20,83,72,1,127,-11,16,53,54,-59,31,52,80,34,42,-3,4,35,63,-1,17,-19,-7,19,25,55,-51,-42,65,127,97,-1,77,112,123,89,29,50,92,-12,-13,-123,-128,42,112,-119,-72,-29,-62,-128,3,23,78,101,32,-22,-51,-38
1551476756583211,-128,-55,-88,-17,87,104,46,-95,63,72,-128,-28,-99,-77,52,-70,-10,-10,-20,-42,-76,10,-93,-75,-31,-2,106,84,47,25,-115,27,33,63,35,45,70,17,-128,83,-107,-104,41,45,100,-46,-124,-98,81,79,76,127,127,-19,25,-41,-30,-35,-39,30,113,-64,68,-128
1551476756635294,8,15,-28,35,32,-126,91,-69,-27,0,-46,22,20,-110,52,-2,-73,-51,-37,-7,7,-68,78,94,24,19,-40,3,11,57,64,115,-1,-37,-31,-23,-90,-40,12,37,-2,0,6,-46,-79,-51,16,-17,-10,-9,-4,47,-36,-68,-41,-21,7,-11,17,79,-49,-4,-23,49
1551476762028303,-5,0,17,36,10,19,-17,-14,-4,1,24,-3,15,-53,-26,-17,6,1,3,-20,72,40,7,-4,1,-1,-1,-38,-94,-57,-2,5,3,3,-14,14,11,-20,-8,3,-3,-3,-23,-34,-47,-19,15,10,-6,-2,-10,16,4,-22,-11,-2,-8,-3,-19,7,-4,-19,-11,-9
1551476762073442,-7,-1,-2,33,-9,-19,-14,-19,7,5,0,38,1,16,15,22,1,0,-10,-5,-23,-5,8,12,-4,1,-12,-36,55,7,-17,4,1,3,5,38,-2,-2,-9,-16,-5,-2,-3,27,36,-16,-6,8,4,-2,-8,-26,23,37,4,3,0,-1,-1,-10,60,32,3,-13
1551476762147839,-7,-2,-3,5,-30,-7,-8,-29,-1,-8,1,125,23,-1,12,9,4,-2,-3,-16,13,11,10,14,-6,-7,-2,6,-65,11,9,6,-5,3,6,20,54,-19,-26,-10,-2,-3,2,4,-33,17,3,-14,1,-1,2,8,29,9,7,8,11,9,6,8,4,25,9,2
1551476762200410,6,-1,-10,-68,-76,-33,4,10,-17,-17,15,77,37,-18,-36,0,2,11,2,-1,-25,15,8,-6,-2,-1,-14,-12,16,-14,-6,-14,-1,3,0,-2,84,2,-2,2,-1,-1,-6,-19,40,18,8,-4,0,3,7,-37,-72,-79,-14,-15,-2,-2,-9,-27,38,17,-3,-17
1551476762267868,-2,-2,0,-66,17,25,3,0,4,4,3,29,-44,-52,16,-3,1,-2,-1,-27,-23,-1,5,6,-9,-8,-2,27,-64,-17,-7,-22,-7,-3,4,47,20,7,-10,-30,1,4,-7,-55,4,50,16,9,0,-12,-29,-48,-55,42,31,16,-1,6,-6,77,39,-27,-17,-33
1551476767840422,7,-17,9,-14,-28,1,-1,6,-2,24,12,-5,-15,-7,0,-53,18,20,12,33,33,4,10,1,-6,11,12,60,18,-6,-5,-14,9,23,37,33,43,-10,-9,21,-4,-30,-24,-70,-79,-18,-11,-15,-10,-39,-21,-28,9,-5,6,10,-26,-75,-3,2,-26,-15,-14,-28
1551476767892999,11,56,4,-8,-19,4,6,11,-27,-16,23,37,27,3,5,-31,27,64,8,-8,-62,0,-7,54,18,6,4,46,24,15,25,-6,-72,-106,-8,-37,-2,-1,-12,-32,-18,83,23,-108,7,13,5,11,59,-1,-19,-39,-34,-5,-8,2,-22,-29,-3,16,33,26,15,-24
1551476767945080,-19,58,40,25,-12,3,-14,-35,-3,40,84,68,-66,-37,-70,-99,-35,-85,-100,-35,-3,23,43,32,3,63,23,24,-15,-4,16,49,108,95,25,62,15,12,64,96,-18,-49,15,-23,-30,-23,-9,-55,-128,-64,14,93,49,19,39,41,-39,83,92,70,87,105,74,127
1551476767997662,127,-11,92,-8,25,17,40,49,-85,-61,39,-45,-38,-89,0,-79,66,-36,-49,34,45,-27,-29,-43,45,-55,43,61,100,108,91,-14,36,-100,-60,-92,-70,-103,-63,-8,127,-34,-128,-25,24,-1,-26,47,-91,-24,-80,-55,-23,-17,-68,-122,-1,-89,3,-48,45,8,16,-90
1551476768042791,3,44,19,-63,-6,-37,-19,-10,56,-8,-2,5,63,4,-9,-100,0,53,91,48,114,3,-20,-128,-110,-8,-108,-77,-127,76,-14,-72,-50,-78,-85,83,-51,123,5,-47,-100,-11,-58,-128,-72,43,-100,16,-53,99,-87,-103,-34,-33,-17,43,16,79,-9,34,45,-95,9,43
1551476790542843,-3,-3,-1,-11,1,9,-10,0,1,-2,-7,-17,-57,3,51,6,3,-3,4,6,-4,-17,-34,4,-7,-4,-2,5,33,19,-42,-9,4,8,-1,-7,10,-2,-5,-1,2,-3,-3,-12,-11,-3,-7,-7,-4,-1,-2,4,4,14,33,8,0,3,0,-6,0,-9,-15,-6
1551476790587966,-7,-2,2,26,59,22,27,-4,-2,-3,-4,-20,-40,-17,-15,8,-1,4,-2,-2,0,3,9,6,-3,-2,-3,8,-22,-15,-35,-6,-3,-2,2,0,9,-14,-5,9,-4,4,6,7,35,13,-11,-13,4,4,-8,12,23,8,7,15,-3,-1,-4,-34,-13,2,4,-8
1551476790662864,9,13,0,10,5,-2,6,1,0,-11,0,3,-4,8,-5,-31,16,0,16,-3,-31,-12,18,41,-13,-8,-9,3,-3,2,-1,3,-1,-5,10,29,-22,-16,1,5,-13,7,6,73,8,3,-4,-9,-6,-1,1,9,13,10,-10,-19,7,4,-3,-46,-2,-6,4,19
1551476790722877,8,-2,9,-16,-23,0,2,0,11,1,1,6,19,10,5,11,1,1,7,-15,-22,-3,-12,0,1,-6,9,-16,-5,-8,-16,-7,-3,-2,-3,-3,-5,-8,10,14,7,0,6,18,24,15,-2,12,-1,-2,-9,-21,-40,-12,-4,10,-4,-2,0,37,26,7,-2,-18
1551476790782894,4,-2,-7,-22,-19,8,3,8,-2,-5,-8,44,7,-4,-4,-1,-9,6,37,26,12,-8,-29,-44,2,-1,-3,-56,-13,-3,4,0,7,-1,9,7,-3,4,2,-11,2,-2,-5,-49,-21,-1,2,13,4,0,-5,48,43,15,12,3,0,5,-5,-18,-13,1,5,-2
1551476797405082,17,-2,32,-24,15,-67,-117,-26,7,-1,-69,109,-125,95,-81,-27,8,2,28,97,12,118,-20,-11,0,10,-85,43,41,75,0,-41,-20,-10,-42,-11,53,-91,106,23,-14,-1,-23,-4,-11,-123,87,93,-1,6,-41,33,15,-16,75,127,29,-1,7,19,-80,28,56,127
1551476797457563,-26,4,-51,21,-30,127,66,127,-27,13,-7,18,-9,-93,71,116,-44,-17,-20,-5,-42,-88,74,123,-63,-108,99,12,-72,54,127,97,-4,-112,127,15,38,127,127,77,82,-82,126,52,41,127,113,-1,-6,40,-92,-30,50,89,18,-106,16,56,-128,-104,-83,105,-54,-106
1551476797502699,65,104,-101,-122,-78,92,-29,-49,-26,127,26,-125,5,36,-30,-39,-38,124,24,-37,38,-55,16,-1,-43,65,-106,6,-8,-27,-20,-37,40,-14,-66,-46,14,26,-59,-61,-4,-46,-58,-22,-8,-93,-90,-41,20,-50,-19,0,1,-121,-89,-60,-50,-47,28,23,-9,-72,-28,-63
1551476797555275,5,-21,1,21,-23,-18,-36,-36,-13,-8,36,13,-13,-34,-59,-11,-10,-9,10,16,-8,-28,-53,-5,5,4,-4,5,-2,-52,-73,0,6,-5,8,1,5,-56,-111,-1,17,-28,13,6,-25,-38,-94,-4,-1,-33,-2,13,-5,10,-28,2,3,-16,-24,-10,1,17,29,13
1551476797607852,14,-11,-47,-13,3,23,71,18,16,-7,-4,-10,-12,27,62,32,11,-1,-17,-11,-6,18,15,-10,-5,-1,12,-10,-18,6,8,-27,-23,8,16,-10,-13,3,-10,-23,-5,8,3,-7,-15,-16,20,-11,-3,4,14,-6,5,-31,27,-15,-8,-2,24,-13,16,-34,22,-12
1551476802220764,-2,-6,-27,-13,-14,12,-6,-15,1,9,29,70,6,12,2,-3,-10,-7,35,80,52,-25,6,-20,11,-6,-57,-75,-82,-21,-33,6,-12,-7,12,52,41,42,19,-23,0,16,20,49,9,36,9,6,2,-10,-27,-72,-4,10,20,10,8,11,57,54,32,26,-25,1
1551476802266289,-6,-17,-57,-58,-2,-35,-1,-3,1,-5,-23,-46,-41,-7,-37,-6,7,11,26,-5,-26,-24,-52,14,-27,-20,-15,40,87,21,37,-21,14,13,-8,-13,-30,-34,10,17,-2,6,3,-6,-8,8,-11,-11,-3,14,32,81,-10,23,47,5,-6,5,36,36,64,-3,-18,-12
1551476802318863,-14,-1,-17,-46,-39,-8,60,-34,-4,21,24,48,27,47,26,-6,10,-3,-53,-77,3,-1,-57,-13,6,12,-13,-40,-5,-6,-7,33,-22,-5,-8,9,15,24,93,-19,-5,7,32,-23,-28,-21,-6,-8,23,-12,-50,-29,-66,-44,-53,38,3,-9,30,36,71,25,25,5
1551476802363002,8,7,66,61,-3,-6,36,14,7,-14,-43,-96,-24,-3,1,-6,1,-2,-2,65,25,23,20,-6,10,-4,4,13,-3,-31,-91,8,-8,-25,1,3,-5,2,12,-17,-13,-29,-13,16,5,18,-37,-21,15,4,-18,-9,8,-6,-39,17,7,-11,-30,-44,-49,-7,6,10
1551476802415081,-3,-3,32,57,37,12,15,-5,1,-7,5,23,-24,4,-23,3,-8,-6,-21,4,-3,0,-34,1,5,2,-13,-27,-7,5,14,11,-6,0,14,-20,31,21,9,-3,7,21,16,24,-22,-27,-46,4,-17,-7,46,35,-5,9,78,-21,5,2,24,74,4,12,4,18
1551476811497833,8,6,8,10,-4,64,52,20,19,9,9,-40,15,12,-11,-8,3,-1,19,3,-26,14,15,30,30,8,-11,-24,-2,-46,-1,16,1,4,47,7,4,-49,-33,-6,-5,-17,-54,62,10,55,-6,-14,4,4,15,0,22,-41,-56,7,-3,-10,-9,-26,-42,7,-4,-56
1551476811550407,-4,10,48,61,19,20,6,-2,10,1,-3,-13,41,-18,-23,21,2,15,31,114,37,-11,-31,-2,-7,0,5,72,-36,-26,-13,-22,1,-2,-20,32,9,7,18,50,-1,-16,-57,-110,-35,-36,29,27,-29,-62,-73,-100,-81,-41,-10,-26,12,11,51,-96,-9,-8,19,-1
1551476811602983,-11,4,-9,57,-7,-13,-50,-27,-2,16,28,20,-5,-7,-49,-4,10,9,9,-10,-63,5,0,3,30,12,86,115,44,36,-3,-15,9,-5,46,-11,-2,-6,-2,-16,-5,10,111,127,119,68,49,-49,12,5,12,-61,-51,7,40,30,12,2,-3,88,-10,22,37,2
1551476811647626,-1,-2,-16,-25,3,9,-6,-10,4,-2,-6,94,15,-6,-38,2,-12,-14,-39,-46,-2,9,-20,-14,-5,-3,14,-5,-65,-15,61,3,2,2,-6,3,-6,31,17,-6,10,11,-14,-16,-16,-34,-17,20,-5,0,-5,-6,22,62,-36,0,-2,-6,-29,-31,-42,4,23,27
1551476811700198,2,-10,-10,89,22,72,25,29,6,1,-19,4,77,22,54,11,-5,-6,-17,-28,10,-28,-2,-22,-7,-5,8,18,-71,-45,-79,0,-10,-8,51,88,31,-14,36,-24,1,2,13,-5,21,103,59,13,2,4,12,-25,2,60,-18,21,-9,4,-53,2,42,127,82,17
1551476822950469,-9,-3,14,16,37,23,6,-4,-3,-4,4,50,63,9,-23,-2,-6,-5,-13,-51,-70,-33,9,13,7,2,11,24,102,33,-1,2,-9,5,12,-37,-37,-20,12,-12,-3,-4,-7,79,6,3,20,7,-7,-13,6,-23,8,11,36,-25,4,-1,-9,-13,3,8,-36,12
1551476823010484,-2,-14,2,59,-8,-3,6,7,10,6,7,18,-34,-27,-67,-3,-1,4,2,16,-9,-4,-1,-5,-5,8,14,12,-19,-14,-55,-24,4,4,15,-13,-24,-3,9,12,-4,-16,-68,-114,-15,9,23,2,1,0,-18,-65,-18,-23,-32,7,1,1,0,-4,-5,-16,-18,-6
1551476823055122,-2,-3,-6,21,8,16,16,5,-5,-4,33,25,-25,-17,-21,-6,0,-4,-25,-11,0,-9,1,6,-6,-2,28,16,3,-16,-17,-9,1,8,3,44,16,17,7,2,2,10,-3,-5,-26,-9,-9,0,-2,0,-32,-92,-14,-10,-14,2,-1,-7,-25,8,23,19,6,6
1551476823100285,-5,-12,-9,-10,-5,-6,-12,-3,-2,-2,1,4,-5,-7,-19,-2,0,2,12,-27,-7,-11,1,13,1,4,12,9,11,6,27,0,6,8,9,-11,5,1,-7,1,-5,-11,12,-5,-12,-14,-14,0,-2,-7,12,37,1,-8,-16,-2,3,8,16,12,4,-2,16,-1
1551476823160273,-2,16,8,15,-8,-9,0,5,-10,-44,-17,-18,-11,-15,-23,-7,-1,-6,11,66,-1,-19,-37,2,-3,-18,-39,-33,2,12,22,5,4,15,5,21,13,6,-1,-1,5,15,-12,10,4,2,-4,-2,3,-6,-15,-14,4,5,5,3,1,7,7,-7,-6,-9,-3,2
1551476832527794,-4,8,53,126,80,7,-6,-2,2,-1,-24,-1,-6,-14,38,2,-1,-4,-20,65,-1,-5,-16,6,-7,-14,-62,-24,4,1,-16,2,-8,-3,-14,-2,-15,13,19,-3,1,2,2,-35,-3,-6,-15,0,14,3,17,-36,-34,-9,7,-3,-9,-6,-25,-27,-12,-14,-18,0
1551476832572862,-2,1,60,44,10,36,18,-1,1,5,29,-27,34,8,11,-12,10,14,-10,46,-49,-8,-37,2,0,-8,-14,-69,7,-15,-16,-1,6,20,67,30,-34,20,50,21,-4,-1,17,54,6,-19,-38,-11,1,-4,-25,56,15,15,11,4,15,5,-24,-79,-8,-13,19,-18
1551476832618000,0,3,-45,23,-63,2,21,12,-16,-27,-75,-61,-32,-16,31,-12,-6,-13,27,-9,-3,-9,22,9,7,20,65,96,-15,2,-6,14,-1,-26,-84,-112,-12,-8,32,4,7,18,79,39,40,18,14,-4,1,-8,-59,-80,0,-14,-20,-9,-17,-29,-12,-5,46,-3,-9,-29
1551476832662638,17,-3,11,41,-14,-5,-55,-23,-15,10,17,91,-6,-13,-25,-27,10,-4,-32,-41,-5,18,32,16,-21,5,36,74,5,-17,-69,-3,19,15,56,53,19,14,26,2,-2,-4,-33,-9,-9,11,4,5,-4,-17,-5,-34,7,3,-11,-5,16,9,-16,-77,2,-10,-19,14
1551476832707790,-12,-4,18,57,23,17,37,-7,7,-7,-12,3,-17,-6,-65,-11,-19,-10,-15,-73,-8,-6,-8,-8,3,8,25,-57,-55,-10,28,7,-7,-10,-6,-31,-12,-12,-26,-12,-11,-21,-36,-28,-26,-23,-14,0,-5,1,36,3,-9,-6,1,0,-4,-12,-29,35,10,17,47,9
1551476838520396,4,19,3,-8,-7,-14,-3,-6,-17,-24,-7,-2,-13,-47,-26,-14,-7,-12,1,4,48,19,7,0,8,16,-19,-11,-25,31,11,8,-4,-10,-2,3,9,8,-8,1,-7,-35,-16,-27,-25,5,0,0,-5,-25,-5,-8,0,-29,-9,-11,7,8,13,-2,20,30,13,4
1551476838580414,1,13,-30,-23,-13,6,3,-2,5,15,13,9,1,-13,3,3,5,28,12,-1,10,45,11,5,2,10,-12,7,-28,-4,4,1,-8,-10,10,9,-14,-36,-7,-10,-2,11,0,16,17,10,-3,-2,-7,-39,12,-6,-22,-3,-5,-1,-2,-12,1,7,6,-7,-7,-1
1551476838632692,7,9,6,21,28,-21,4,11,10,26,12,18,19,112,34,18,-5,-8,-9,0,-3,-22,-22,-18,-6,-7,2,4,-1,-41,3,11,3,-6,-3,-9,-25,-29,8,4,2,5,2,-8,-65,-54,-25,4,5,6,-1,-1,-1,-20,11,10,3,-1,-1,-5,-5,57,7,-4
1551476838677631,2,2,11,15,31,57,30,7,1,6,-13,-24,17,20,13,-13,5,12,28,24,44,53,32,6,7,-1,33,19,45,48,13,-3,3,-11,7,-18,7,-23,-11,-3,-8,-14,10,-20,-27,-119,-41,-14,-11,-8,-15,-27,-62,-111,-44,-21,-4,-10,-5,-6,-14,-84,-22,-3
1551476838737643,-2,-8,-12,8,5,6,13,10,-7,-18,-23,-3,5,8,3,1,-5,-5,-9,-5,-39,-28,-15,-9,-3,9,-11,-3,7,13,-13,1,5,-2,-19,17,69,93,12,11,-1,-1,-3,7,12,-12,-15,-4,-2,5,2,5,-12,-7,-27,-4,-8,-5,-1,-15,-20,-13,9,-10
1551476841152666,2,-9,10,-8,-5,-22,-41,1,0,3,-12,0,13,13,12,3,0,5,14,9,6,-2,-22,-8,2,0,24,3,16,-14,-7,0,-4,4,-10,-12,-12,13,0,-4,1,-6,0,-49,-7,11,-6,4,-4,-4,13,7,7,5,25,0,-10,-12,-4,-28,4,12,22,1
1551476841197824,3,2,-22,-39,-4,-12,-17,-1,7,0,-12,14,-2,1,2,2,0,-14,-2,14,1,-10,-17,1,-7,13,35,-34,5,1,11,0,-10,-28,-39,-88,-13,-11,-8,-21,0,8,-22,-39,-7,-3,2,14,4,-4,3,7,-1,-7,-16,-11,1,-4,-4,10,11,13,32,6
1551476841250379,1,6,4,30,3,3,-16,6,2,11,-17,10,6,11,29,38,-5,-4,-59,-23,-14,-3,-9,0,20,-1,-21,-5,-5,-9,3,11,-8,20,40,17,6,-5,-2,19,-24,-5,-8,-20,-6,-6,-9,-9,-13,-16,-13,28,7,2,5,8,13,28,65,-10,-1,3,-15,-17
1551476841302458,2,14,78,-33,10,0,7,2,-7,-23,13,40,7,5,0,-4,-6,3,11,4,9,6,15,-9,72,-16,-13,43,3,4,-15,-27,-39,51,82,111,24,13,1,-21,-54,-15,-69,-97,-12,-5,-19,-1,4,-17,8,41,-4,-8,-7,23,72,-3,-19,-31,5,9,12,2
1551476841355035,-14,-48,-8,52,3,6,-1,2,-119,81,4,39,-5,-6,1,-11,-15,-7,-32,-14,-15,-7,-2,-4,-12,19,29,-46,3,-4,-1,-4,23,-35,-34,-61,-26,-13,-8,-6,40,-31,8,-35,-26,-13,3,6,-11,-3,-17,-1,1,1,-7,-18,-54,6,23,35,0,1,-8,-5
1551476846552620,22,-2,5,-1,7,-7,-7,2,-4,2,6,-13,-6,-17,-8,-3,27,5,16,105,19,5,-1,0,-22,-14,-34,-110,1,1,3,-10,-32,-1,4,29,-5,-18,-5,-9,12,-3,9,22,16,14,-1,10,-43,-16,-5,-72,-30,-14,1,-2,9,12,-6,36,3,-15,-9,2
1551476846612632,-53,-12,-5,-57,3,-9,6,27,-38,-3,-3,-18,8,16,31,28,30,5,4,-59,-29,-3,-21,-10,-19,3,40,50,-4,-4,-19,-6,-2,11,36,16,-23,-1,7,2,-93,-28,-12,25,38,7,-13,-11,39,7,53,127,3,-6,-1,-57,42,5,15,31,0,-7,-50,-112
1551476846672656,-54,-40,10,34,7,-14,7,87,119,63,49,78,17,15,60,62,-26,25,40,-73,14,-12,-71,-59,-16,-24,-43,10,-16,-14,-4,-104,47,-21,-95,-5,21,3,62,107,75,33,-3,-23,-99,124,5,46,-49,4,46,48,86,85,127,-5,20,0,43,50,60,61,5,-1
1551476846717783,13,12,-89,20,40,42,-96,-44,-36,42,6,-5,-7,-87,7,28,-34,-46,-28,16,-93,-103,81,-42,-14,-73,-64,-50,-83,-128,111,-47,-22,-5,59,13,1,-76,127,-22,36,-128,61,-99,124,-98,-108,18,-60,16,-5,42,-98,58,77,8,-64,99,-44,-38,-104,85,4,99
1551476846770360,32,26,-12,36,7,-2,-128,16,80,-15,18,38,15,-7,-65,-63,-25,0,39,105,15,-62,96,44,12,13,53,0,-78,-71,-101,9,-18,21,72,79,53,75,127,24,12,-8,16,40,89,98,127,14,-2,-30,-25,-45,19,-68,1,-24,-37,-10,-79,-80,-38,-83,-33,-17
1551476848727574,-2,22,73,47,28,39,7,5,-2,-10,-16,-50,-4,-3,-28,-9,-14,-1,14,1,-6,9,34,-20,8,28,16,-32,0,-2,8,7,9,17,28,-1,-2,-19,-58,-5,9,27,8,-10,31,40,63,27,-10,-21,-20,45,-30,-24,-14,-10,2,4,22,0,20,7,17,4
1551476848772711,-3,-3,1,-46,-9,-5,-35,1,-5,-12,-9,-4,4,17,52,16,-7,-10,-40,8,44,30,87,18,-7,-13,5,7,-10,-15,41,16,3,19,1,-15,-6,11,30,11,2,-1,61,54,9,-14,-65,-9,-5,-19,-9,-96,-9,-8,18,-1,-9,-10,37,27,-12,-27,-32,-14
1551476848825288,-2,8,15,16,-12,-15,-16,3,-2,5,21,3,5,-3,-24,-12,5,24,17,14,-20,-19,-18,-12,-2,6,4,-10,-3,-15,0,25,-1,-14,9,0,6,18,51,-1,3,15,-12,-28,-5,-5,-26,-5,4,6,14,34,6,13,25,10,-3,-4,-33,-47,-6,-8,-5,-8
1551476848862501,1,8,17,12,8,14,30,6,-6,-12,-38,-23,-6,-3,-22,-3,-2,-12,12,18,0,-2,-9,-2,-3,6,-15,-2,5,8,16,-5,3,-4,10,22,-2,-4,-27,4,-9,-14,-46,-9,0,19,80,-1,-1,-5,-4,-24,-9,2,13,4,2,4,-9,-62,-4,-10,-50,-4
1551476848907703,6,19,-17,43,3,-3,-13,4,2,12,-11,-4,-6,-1,11,-6,-19,-96,-16,-11,-10,-4,-18,-18,-8,-21,14,82,11,1,4,-6,18,-4,-23,-36,-8,-7,-4,17,-10,26,-3,37,4,-14,-31,6,17,37,-3,-61,10,18,10,10,-2,15,43,-54,-7,1,-4,-12
1551476854982634,-5,0,6,19,-11,-21,-2,-13,-10,-4,-2,-4,-11,-2,-24,-13,-1,-4,2,6,11,-3,5,-6,-13,-3,3,-7,-12,-20,-31,-10,0,0,3,31,6,-3,11,4,-3,-1,4,33,2,14,4,-3,4,1,3,3,13,26,17,11,-2,-5,7,5,22,-2,-8,-1
1551476855020326,5,5,7,-10,-20,-10,1,5,9,-9,-34,-32,-14,-5,-17,2,6,1,-3,-10,35,7,11,-4,3,4,-10,-95,-51,-4,7,-2,9,6,11,9,7,2,-7,-4,-4,1,10,27,10,-2,5,2,1,-1,-4,1,-32,-34,-25,-11,2,4,19,81,63,13,6,2
1551476855065463,-10,-12,-22,-86,11,13,1,-15,-11,2,1,-26,-49,-8,12,-21,-2,1,4,40,11,-18,15,9,2,0,5,22,-5,20,2,10,-5,-5,21,45,3,6,-3,-2,-17,-19,-19,-36,-54,6,-18,-15,0,-5,4,39,-16,-8,-35,-37,-16,-16,-45,-28,-23,-33,10,-9
1551476855102663,4,4,-1,24,5,4,9,3,7,7,19,22,64,20,9,9,3,10,20,-26,-55,-18,4,17,0,0,-15,-62,-9,-3,-16,-9,-6,-1,40,40,15,20,20,-4,1,-1,-10,0,25,-2,-6,-4,-3,-11,-8,-15,14,9,-2,0,4,6,-5,6,17,8,-1,1
1551476855140356,8,9,0,-19,-42,-30,-4,7,-1,-19,-3,7,4,-12,-26,-7,-8,-12,-18,5,20,28,45,5,-6,-11,-8,18,1,5,23,5,-1,-1,-15,-4,14,12,11,3,2,10,5,10,-28,-11,-17,-1,3,4,4,-1,-1,-10,-22,0,-3,-5,8,32,28,-5,-7,0
1551476877678093,2,-12,-91,-105,-17,-9,-7,5,0,13,8,-47,-16,0,-9,-2,0,-23,-7,-38,-3,-1,-4,-7,-27,0,0,-2,-7,-2,-2,4,-2,-1,-5,-13,-9,-10,7,4,10,24,-73,-19,-1,1,-29,-2,0,41,9,-30,7,-5,18,14,6,0,62,43,11,14,12,-17
1551476877707853,-23,-16,28,13,5,-3,-17,-21,1,-24,26,2,-4,-3,1,19,19,3,62,78,24,14,25,4,0,21,-39,-42,8,-14,-14,5,-23,-16,-69,-18,3,-4,6,24,56,7,6,73,3,-1,4,0,23,1,3,60,-14,-1,5,-4,4,22,-22,7,0,-4,-5,-14
1551476877752491,-23,-41,53,71,-19,-12,-25,-30,-58,-13,-28,-33,-2,2,0,0,34,46,69,47,14,3,-4,1,25,29,65,9,-18,-8,13,2,65,33,71,78,18,13,-3,-8,-9,-42,-9,67,10,6,9,-1,50,-15,-89,-96,-30,-1,-9,-13,-7,49,13,67,29,7,-2,0
1551476877805070,17,-53,11,29,25,15,21,34,-29,4,23,30,4,10,19,-26,-107,93,70,52,24,11,-79,7,61,67,-42,42,25,9,78,57,-23,-31,-69,-39,-13,-7,5,-44,112,84,-86,-30,-14,-1,101,6,11,54,107,65,39,45,-19,40,25,-83,-63,-49,-24,-10,-31,-94
1551476877850209,-33,25,-29,-43,-51,-37,11,27,99,-11,-24,-40,-57,8,55,127,-74,6,16,127,43,-20,-54,-76,46,-41,83,90,25,-5,-119,-11,66,85,64,108,102,42,116,109,-33,14,68,-71,-19,2,-56,87,-88,76,-92,-57,-54,-10,-1,-90,-110,-30,40,54,17,47,82,-13
1551476889887504,-9,-2,-2,-4,4,1,-6,-5,5,3,1,22,4,-1,-3,-2,-14,2,-7,-2,-5,-19,-18,-5,14,-5,-11,-6,-3,6,-12,-2,6,4,-1,-13,-8,36,27,2,-4,8,6,13,25,33,15,4,0,9,10,37,9,3,-5,1,-2,3,-10,-5,-6,4,2,1
1551476889940096,54,-5,-15,-13,-13,-27,-13,2,-42,-15,1,17,-9,-29,-16,-6,-10,1,-10,-4,-4,-3,-7,-4,-8,4,-9,-30,-5,-4,5,-1,-9,-5,3,8,8,-1,-2,-1,17,2,-5,-2,-8,-5,2,1,-7,-3,0,0,2,-2,-9,0,14,3,2,-10,-3,14,19,1
1551476889977774,-7,-7,-10,10,1,4,-5,0,3,3,7,31,21,-9,3,0,-3,-21,-10,-20,-13,-10,-7,-2,1,-1,1,13,-3,30,2,-3,-11,-1,1,-23,18,34,20,0,6,-2,-4,11,0,-6,-16,-5,0,19,13,34,20,28,-10,-3,2,4,-12,-23,4,-8,36,13
1551476890037790,-8,-8,-12,-12,-7,-18,-13,-2,-7,2,0,-12,-10,-7,-6,-4,2,-5,-8,-9,-13,-47,-26,-2,-4,11,16,10,3,18,-11,-8,-7,25,14,21,2,1,4,1,0,-26,-8,-30,-9,-14,5,2,-2,1,-6,-20,-2,-1,0,2,8,13,-2,1,-5,-38,-19,-4
1551476890112687,-1,-12,-16,-37,-10,2,-5,-3,0,2,-12,15,-10,12,1,-2,2,1,-3,-12,-1,-38,-11,-1,-2,3,-10,-36,-5,21,7,4,-4,-3,-4,23,7,-3,-6,-2,-9,-10,-16,-5,-17,-48,-39,-22,-1,-7,5,40,12,6,2,1,0,-1,7,48,8,-14,8,-4
1551476897208083,19,14,24,66,2,-2,8,-2,-15,-9,-51,-71,1,3,8,7,62,36,65,-40,12,9,-15,9,-40,33,45,-14,3,5,16,-9,21,-31,8,28,-3,-7,0,10,-6,-24,17,71,-15,-9,-12,-19,-37,-15,19,87,6,-8,-9,-1,89,5,-12,-47,-27,1,-1,6
1551476897275040,-98,-8,63,62,-20,-14,-18,-40,33,-16,55,88,18,17,-5,-23,-47,49,-38,21,-15,-23,30,66,-16,-3,86,68,35,16,-20,-58,65,94,67,61,53,47,-90,-32,-49,-112,53,-30,-25,5,-71,-69,-13,79,-10,-8,-16,-37,127,46,65,-47,-45,27,-34,-26,55,35
1551476897327606,26,2,-52,-64,13,7,43,68,57,-36,-54,-8,-22,-13,-26,-53,-86,-32,-60,-75,-20,12,-49,-128,-39,62,58,74,40,31,37,-10,-33,-98,-81,-52,-12,6,9,-37,-87,21,-6,-16,6,15,-6,23,78,-84,71,47,18,9,-50,91,-17,13,10,3,9,17,-65,-7
1551476897402511,73,-64,8,21,12,26,93,123,-32,27,27,42,12,6,-42,14,-5,-71,-37,-15,-28,31,-72,-109,1,-17,-59,-68,-22,-72,-120,-50,-68,21,-32,-8,-89,36,-1,-8,-52,81,7,46,-12,118,-63,102,-23,-59,-13,31,-64,-22,24,12,15,-6,-9,84,21,-57,21,74
1551476897455082,87,-24,-18,14,125,-10,66,9,-21,-6,-56,-79,38,-13,103,1,35,33,5,-57,16,0,36,-1,24,-5,22,-12,1,3,68,7,-27,13,-60,-101,-26,-6,-10,-70,56,-39,4,-53,-19,-7,-40,-27,-46,-38,42,-24,-24,-8,6,-77,-19,25,69,38,2,-3,-38,44
1551476903327716,7,8,52,-34,-22,13,-19,-12,-7,-9,-21,6,-8,18,33,8,0,-19,-36,-29,-2,-13,-23,-6,-2,4,32,-2,-10,5,10,-10,-4,16,22,16,-14,-29,-26,-12,-4,-5,14,-3,22,26,42,6,-5,-10,9,3,-16,0,9,7,-2,0,-2,9,17,25,9,-9
1551476903380788,-6,-15,-18,-6,11,-1,38,10,-1,-11,-4,-24,-8,-13,-22,-8,-2,1,29,11,-7,14,29,2,-5,-24,-58,-30,1,-6,-18,-3,-1,-1,-7,-12,-12,-10,-8,-1,-6,0,-6,-4,-4,13,10,0,-1,3,-13,12,-3,2,18,-16,-8,-21,-33,11,8,-7,-13,-9
1551476903417509,-6,-2,-34,-55,-4,-4,-7,0,3,13,15,-10,-3,-8,-26,-14,-3,-19,-23,-18,2,8,6,-1,1,1,26,-3,-9,-1,7,0,-9,-21,-21,16,2,-2,-11,-4,12,4,-42,-20,-5,-2,1,3,-15,-17,-27,-31,-1,4,9,2,-5,-2,-22,-21,-2,-3,16,8
1551476903470066,6,8,0,12,7,6,1,4,5,12,48,89,6,11,0,-1,5,23,29,14,-8,-9,-12,-9,1,30,-8,-47,-4,-6,-10,-5,-5,-36,7,29,12,8,-22,-9,-18,-39,-9,28,1,5,71,60,39,29,-22,55,5,-1,-5,7,-18,1,38,-18,-2,-9,-12,-19
1551476903515202,-14,4,-60,-82,-18,-17,-12,4,-19,-28,9,-42,-15,-1,2,-14,-12,-1,61,-6,-8,-13,-6,-1,4,-5,37,2,-1,-4,-5,7,-64,-17,-21,-40,-20,-9,0,-10,32,82,44,54,9,10,-8,1,-4,14,53,-25,2,8,13,3,22,3,-17,97,6,5,0,-1
1551476906770453,0,0,0,-1,-2,0,-1,0,0,-2,-2,0,-1,0,-1,0,-1,0,1,0,0,-2,-2,0,-1,0,-1,0,-1,0,-1,-2,0,0,-2,-1,-1,-1,-3,0,0,-1,-3,-3,-1,-1,-2,1,0,-1,-1,-3,0,0,0,-1,-2,-3,-1,-1,-1,-1,0,0
1551476906807653,-1,0,0,-1,-1,-2,-3,-2,-1,-1,-1,-2,-1,0,0,0,-2,-1,1,0,-3,-2,2,-1,-1,-2,0,0,-2,-4,-2,0,-1,-3,-1,0,-2,-1,0,-1,-2,0,-3,-1,-2,0,0,1,-2,-1,-2,-4,-1,0,-1,-4,-1,2,-1,-2,-3,-5,-1,0
1551476906845477,-1,1,0,-1,-1,-2,-1,-1,-1,0,0,-2,-1,-1,0,0,-1,-2,-3,-1,0,1,0,0,-3,0,-1,-1,-2,1,0,-2,-1,-2,-1,-2,-1,-2,-3,-2,-1,-2,0,-2,0,-3,-3,-2,-1,-2,0,-1,0,-1,-2,0,-1,-2,0,-1,-1,-2,-3,-1
1551476906882546,-1,-1,-1,-1,-1,0,0,0,0,-1,1,0,-2,0,1,-1,-1,-3,-1,0,-1,-4,-2,-1,0,1,-1,0,-1,1,0,-1,0,-1,-2,-1,0,-2,1,1,0,-1,0,0,0,-1,-1,-1,0,-1,-1,0,-2,-6,-2,0,-2,-1,-2,0,-1,-2,-11,0
1551476906920248,0,-2,-1,-2,-2,-7,-3,-1,-1,0,-3,-1,-6,-17,4,-2,-1,-1,-1,0,2,29,3,0,1,0,1,1,5,13,11,2,0,0,0,0,4,18,9,1,-1,-1,-2,0,1,-13,-12,0,-3,-2,-1,0,-3,1,-3,-3,-3,-3,0,-3,-6,-6,-6,-1
1551476908937473,-3,-4,6,2,-6,-7,-4,6,-16,2,3,-5,-6,1,8,4,6,10,-14,-25,-11,-3,1,0,10,22,18,24,8,5,0,5,16,-37,-29,13,2,2,-4,-7,-25,-7,-4,-20,0,-7,-5,-3,-15,-21,-13,-4,-2,-6,-5,-10,-13,4,-8,-18,-11,-17,-20,0
1551476908990050,-1,-5,11,17,8,17,16,1,8,7,1,4,4,2,7,3,-4,6,10,9,5,-13,0,-2,23,-15,7,22,11,39,8,4,6,21,12,2,-2,2,-1,2,-5,-11,7,25,4,-15,-6,2,12,-10,4,12,0,-3,-10,-8,-5,-12,1,0,-4,0,1,0
1551476909035185,-4,17,9,-5,-5,-6,-5,2,-6,10,4,14,0,-6,5,4,-27,-64,-34,-8,4,1,-11,-6,26,7,5,-4,-8,-13,3,4,-3,-2,-16,7,8,8,-1,-3,0,8,-12,-19,-2,1,7,3,42,8,5,-13,-6,20,15,25,4,12,3,2,5,10,4,5
1551476909102640,0,-10,1,11,9,0,-6,0,-3,0,-2,-19,-18,-35,4,-1,-12,12,2,5,2,45,-3,-12,-7,-4,-3,-10,2,-3,19,3,34,13,11,28,21,30,8,8,-4,-9,-6,-7,-4,-6,-3,0,-6,-15,-3,5,-3,-15,-12,-7,-2,-13,1,-18,-11,-3,-5,1
1551476909147776,-9,-21,-8,-16,-7,-17,-1,-3,-4,-23,-4,-6,-1,-1,-1,-4,10,-7,2,11,4,0,-3,-4,9,6,-11,-3,-3,-11,-2,-1,-2,6,-6,1,-1,-2,-3,2,14,-16,-7,-2,-4,-17,-16,-2,15,-7,-1,0,-7,-17,-13,4,44,30,-4,-5,-14,-21,7,5
1551476910932388,6,11,12,-27,2,2,15,17,0,4,9,18,-10,-19,-16,-6,-7,-11,-7,26,-5,3,-12,-14,6,9,40,47,18,7,-12,-1,0,1,10,66,1,-4,-18,-5,-4,-1,15,17,-8,-11,-3,-5,-5,-22,-33,-25,-23,-9,-1,-4,-2,-14,0,127,22,2,28,8
1551476910977521,-10,-6,13,24,-7,7,9,-12,3,10,47,83,5,-3,26,7,-2,0,-7,-17,2,8,26,1,-3,-14,-13,5,-10,-4,13,3,-2,4,12,25,16,2,-18,-5,2,2,10,-1,1,-10,-26,0,0,-3,-20,-18,-4,3,6,0,-2,-11,-6,-88,-3,11,18,-1
1551476911015218,5,9,42,34,7,-8,-38,-4,-4,-11,-18,-26,-5,-10,14,3,1,15,31,9,-2,-5,-7,-5,-1,9,3,18,-2,-1,6,-3,0,1,-1,-6,-8,-6,-5,-2,0,-3,-29,-28,3,-5,-20,0,-4,-7,-41,-43,9,7,5,0,4,27,76,39,-14,-4,-14,-5
1551476911067792,-1,9,-21,11,-5,2,12,0,-11,-37,26,18,6,-1,-2,-4,-4,-17,8,0,-8,-4,-3,1,0,-2,-9,3,10,1,-23,-5,3,15,27,18,-7,1,2,-4,6,7,-14,-11,-4,-12,-4,-9,-2,1,16,-14,8,1,-22,-8,6,7,20,10,-6,-10,-16,-11
1551476911104994,-3,1,23,27,-3,5,-14,-6,-2,4,3,17,2,1,27,-2,4,7,18,0,1,5,3,0,0,-1,2,12,-2,0,-15,0,1,9,22,26,-4,-1,12,6,2,3,-6,-19,0,6,0,6,2,-5,22,70,1,-3,8,1,3,18,58,72,22,14,6,2
